time_s,ecg_mV,respiration,spo2_pct
0,-0.0171316461358921,-0.00499618907695679,96.9407909434288
0.002,0.0833508467293789,0.0576982010957653,97.1721721751898
0.004,-0.038276539368066,0.02632887260677,96.970935663743
0.006,0.131876427873433,0.0337464760742146,97.4094754279362
0.008,-0.000666821239651145,-0.0171103074276042,96.493589056289
0.01,0.0154973415418012,0.0379994524695202,96.9863283836729
0.012,0.0346896547370419,0.0299854110195295,96.9161384858449
0.014,0.00354667777924138,0.0472856651201085,97.5248200995261
0.016,-0.068903106040042,0.0505107383576019,97.0875699712477
0.018,-0.0661823422095093,0.0689613892629395,96.9337345520051
0.02,-0.0733356693927828,0.0380265469557997,96.966972024258
0.022,0.0567949677318439,0.0031318074067128,96.802033873284
0.024,-0.00051467794051623,-0.0230294005116016,97.0181427588557
0.026,-0.0621804692802427,0.0374729857417141,96.8891353793898
0.028,0.0417387396927242,0.0666785565487071,96.8459061839106
0.03,-0.00703658084158323,0.0685268507747877,97.3124871244709
0.032,0.0141448639923789,-0.0129006969326332,96.6215627817572
0.034,-0.0214875750113675,-0.00500020397671202,96.7630850853015
0.036,0.0559275995474358,0.057724411906284,96.7921321848805
0.038,0.0568793339914015,0.114405248440014,97.2643364044847
0.04,0.075058892869908,-0.00578227618720907,96.797221327686
0.042,0.0579440856438313,-0.0519121517281545,97.3881740284695
0.044,0.0632168761479754,-0.0428720203476239,96.8122270736446
0.046,0.036813199816179,0.0676091114595467,96.9255101060735
0.048,0.0656871576301055,0.14755261882872,97.1526284525332
0.05,0.0287098614782375,0.00772631106564397,97.1034121400957
0.052,0.0310458805692352,0.0584180745164244,96.7837400710429
0.054,0.21343545521989,0.0494924249101165,96.6538205560602
0.056,0.178054945681144,0.0772491823001693,96.9213645657476
0.058,0.0346494244840799,0.0215570360430564,97.1981509457326
0.06,0.0785716005751952,0.079138170086513,96.9521130650106
0.062,0.0927765518341172,-0.0223019955147212,97.0357719508756
0.064,0.18977870067064,-0.0281934857113673,97.0169152650446
0.066,0.185908249041416,0.0667215339532258,97.0326449993065
0.068,0.0489779535579918,0.037886534778186,96.819111632535
0.07,0.127024121792538,-0.0341936489123951,97.140141999018
0.072,0.0102346415466741,0.114497187983993,97.1494924255473
0.074,0.128703654786949,0.0938717911325126,97.079440183991
0.076,0.134936538956954,0.0959263862536878,96.698191245323
0.078,0.103897673540141,0.0694055801516407,97.0615237058382
0.08,0.135976323459058,0.0748577087999313,96.9171215951393
0.082,-0.0385969276885065,-0.00449167284325332,97.1371379941398
0.084,0.0304099131927518,0.127347869993191,96.9920518885725
0.086,0.058814305696781,0.0567896877114281,97.2530989821928
0.088,0.0114921154035327,0.0565846710584516,97.1162016651008
0.09,0.0555396557535883,0.0860038578852651,97.0823295005362
0.092,0.019641011483366,0.010397226249842,96.9307584679474
0.094,0.0352906663803206,0.0133565242170692,97.068967795699
0.096,0.00463213325073315,0.0468321577194111,96.7635113127066
0.098,-0.123361511024035,0.027014957197395,96.977341277677
0.1,-0.0473307496292768,0.105931516505653,96.9853167446368
0.102,-0.0562579097506029,0.0353361883123068,97.0424418473215
0.104,-0.0145370475513587,0.0634501926944079,97.0787895342689
0.106,0.0541001108129486,0.137254604750429,96.6343153156487
0.108,0.0143159511044543,0.059744221790774,97.1504035989404
0.11,0.0877176752095445,0.112219068098356,97.6021407741116
0.112,0.00894540140471517,0.108990568468364,96.7785309181689
0.114,0.0182511846035664,0.0437463275021149,96.9399500939796
0.116,0.0373986872438239,0.0712425971887455,96.7933459849844
0.118,0.0421465743823128,0.118940204335861,96.9218504417235
0.12,0.0824668052004886,0.15881183548177,97.0421818287247
0.122,0.086288977452396,0.0756117144260001,97.2022073347714
0.124,-0.0765418776889381,0.0754401073912641,97.1409477563826
0.126,-0.019558491231754,0.141703066675564,96.9998156903393
0.128,-0.07676367777796,0.0517257346070063,96.9708229411585
0.13,0.0047997646286925,0.169399194750296,96.9044092590009
0.132,0.0269535340315834,0.0955380983231733,97.3715144653906
0.134,-0.10140297011727,0.0923778515601648,96.5967627816183
0.136,-0.0714514193468228,0.166215569761524,97.1528993987157
0.138,-0.023999917753189,0.106906192680141,97.4589442370451
0.14,-0.0217434898183418,0.122605165897264,96.9801783135691
0.142,0.0267388615182063,0.126702553196541,96.8137043671732
0.144,-0.0234964606170463,0.200073570273821,97.1823722766906
0.146,0.033720661767256,0.157543729110954,96.7702199281707
0.148,0.0194879635315875,0.0543077061668328,96.7045550852879
0.15,0.130287175218155,0.113260971921404,97.0119009137273
0.152,0.400419896406753,0.0802355717858739,97.0018261429934
0.154,0.548687405198352,0.129626332384799,97.1843635961599
0.156,0.670111237493559,0.136978386623192,96.8774850424302
0.158,1.05722260752652,0.185607711522915,96.8318957948929
0.16,0.97835311722416,0.172629476936571,97.2121664388324
0.162,0.878872154383157,0.148372287156427,97.1186714831703
0.164,0.755236409440485,0.126420054399386,97.2040456614445
0.166,0.570498704068656,0.214663453066048,96.8373755320612
0.168,0.389566161205233,0.147920481806812,96.9884294524183
0.17,0.188708503166013,0.146074073638854,96.8881460905286
0.172,0.0199715985128379,0.132842631287345,97.0358955278018
0.174,0.0208798795040461,0.11532511948803,97.1358807812372
0.176,-0.128431145843571,0.181738616182745,97.0616704620189
0.178,-0.132035944167643,0.186654759147883,97.0968855677636
0.18,-0.0733667523747783,0.143146191177334,97.2963648985715
0.182,-0.131572421482893,0.131609947352832,97.0298085150961
0.184,-0.112219922367849,0.236623991052374,97.0120313089284
0.186,-0.00840989553432234,0.0893621318153819,97.1093815663178
0.188,-0.0980101902253364,0.0789427470173739,96.7882668062011
0.19,-0.00496052301699848,0.179230893147504,97.2560028113274
0.192,-0.0124604834474557,0.157096978789426,96.9678299434554
0.194,0.0985405974583977,0.195977624600298,96.8408368279757
0.196,0.0531936064429822,0.16250123151574,97.1935205654778
0.198,-0.0903728706896615,0.244181538623204,97.058287081448
0.2,-0.102770961773459,0.236925389146131,97.2011433396204
0.202,-0.00810126794805096,0.187726597022879,96.8862519253504
0.204,0.0314346813037871,0.113013659262291,96.7920300117754
0.206,-0.0173829910417142,0.174202250986667,97.2588654437022
0.208,-0.0233374156821529,0.189748985268624,97.2374817900722
0.21,0.089087126728531,0.198897201548326,96.8623991552106
0.212,0.101949819400138,0.121140774190651,96.7321541891917
0.214,-0.00997736649361603,0.0969721487414656,96.7856966728561
0.216,0.0926442238898155,0.174657373677134,97.1307460928413
0.218,-0.0148178989584395,0.118833410350295,96.8241413635598
0.22,-0.0857022420121646,0.271922414809809,97.0905518848385
0.222,0.00717239552708219,0.159219920234866,97.3856878427634
0.224,0.0314400073632942,0.207420088982524,97.1577497477855
0.226,0.0328168313371534,0.222287484706673,96.9269857878829
0.228,0.0383801664105591,0.136273240529211,96.8282346319573
0.23,0.0465858734403703,0.250003075625034,96.9945363323532
0.232,0.0835983055634127,0.195954900869879,96.8551218172936
0.234,0.0532107767344921,0.174927885027935,96.978547826287
0.236,0.0226286319958945,0.174642218385399,97.1631369820347
0.238,0.0458288165534223,0.124492274785619,97.0568470575177
0.24,0.0595757445590694,0.0992406517728337,96.6020342183806
0.242,-0.0180800461359438,0.224767355844651,97.1874754877415
0.244,-0.0750735251223349,0.2260190246674,97.1566302245089
0.246,-0.0326230796780733,0.160636927450997,97.0175033366525
0.248,-0.0635456510637526,0.217070893974953,97.0919035676331
0.25,-0.0235491377325143,0.0977047586902582,97.0129170884701
0.252,0.031874251606648,0.16696302996026,96.8907040380994
0.254,-0.0577421550088152,0.256961106100963,97.1900001423163
0.256,-0.00675735257851354,0.176754259291318,96.9269978928611
0.258,0.0598254320589205,0.171402699438663,96.8906843814698
0.26,-0.0254905710415107,0.23865629061473,96.4412345847344
0.262,-0.086479466500416,0.293202640811116,97.0326814775299
0.264,-0.0465554526005562,0.191375881910883,96.9350391658767
0.266,-0.0274340196837157,0.238170019665548,97.0593677403458
0.268,0.0282372227646349,0.262151730429605,97.0116410141606
0.27,-0.0364885807645583,0.196707982023694,97.2271450451802
0.272,-0.060687880535353,0.239012756152039,97.1747330176187
0.274,0.0909644564696214,0.247338629000449,97.0410054850698
0.276,0.0735252234756906,0.173762092134626,96.9634188909726
0.278,0.0334372666727084,0.292510353716677,96.8210718802622
0.28,0.110428221198812,0.237442695663592,96.9108143439109
0.282,-0.0245467294805604,0.214243069482433,97.1493642541352
0.284,0.0982158244271324,0.298549837592583,97.0693441781034
0.286,0.0322762384969631,0.237113537280677,97.2646319349307
0.288,-0.0124919389847906,0.161079174110418,96.8357137750122
0.29,0.0474961016545381,0.165851619677937,97.3641991950669
0.292,0.0517110693144074,0.253770217106229,97.358864798199
0.294,0.0838139528458229,0.19933936281818,97.138828264656
0.296,-0.0750715933372273,0.24663440975378,97.5068844079975
0.298,0.077046185463076,0.177382156492969,97.2789954379503
0.3,0.0576446501966128,0.155428948860625,97.2244740880717
0.302,0.11228179201048,0.228170449452548,97.2558584141042
0.304,0.0283605086392735,0.269821443152061,97.1295785266002
0.306,0.0265921475611352,0.268875046849669,97.1471582662015
0.308,0.110489639550403,0.14398378398741,97.0455459120118
0.31,0.0877170830025924,0.231731465426031,96.7494471545219
0.312,0.209838351013166,0.226893846220695,97.0794291524346
0.314,0.130412174979476,0.195770677944349,97.2932088190367
0.316,0.138954000312299,0.227995459165726,97.1279459908785
0.318,0.184387246383481,0.184264474034856,97.2255028199736
0.32,0.173705095282034,0.231089731610647,97.0465397181783
0.322,0.243762119632175,0.248432158020022,97.1444247687989
0.324,0.276415949120923,0.247699690376972,97.0570678525483
0.326,0.20863656914963,0.261601384550737,97.0474751578233
0.328,0.180832559437498,0.216397710967556,97.291957334315
0.33,0.243286953191464,0.200665205535172,97.0904747685947
0.332,0.284528997731214,0.256769168001837,97.1048823940607
0.334,0.275667424882612,0.306440863883745,97.2614801953954
0.336,0.360559951937367,0.289726605489473,97.4891456981207
0.338,0.214678593214654,0.21065809149126,97.217995790868
0.34,0.264437956271749,0.265347520480794,96.9150831187853
0.342,0.273619325654079,0.234311149217741,97.1462854091796
0.344,0.2477776175756,0.265550976204645,97.3542407711047
0.346,0.269222815488104,0.293418594945929,97.1288557306839
0.348,0.294719843889805,0.253713309215385,97.2543940641074
0.35,0.302894843628843,0.313604543607266,97.2398779144867
0.352,0.28139732159231,0.346297526538687,96.6266384337007
0.354,0.254799264609311,0.211735870541946,97.4212630027674
0.356,0.275475799472606,0.197459775144935,96.8496073094364
0.358,0.259396287561125,0.271428329407152,97.076845042129
0.36,0.254450443326045,0.252364846832001,97.0847638248473
0.362,0.296254493557286,0.261927904697898,96.8609736390171
0.364,0.284779733615726,0.279646877255183,96.8604387856528
0.366,0.325973754244724,0.330365531037228,97.3047615969278
0.368,0.259002432431134,0.281148197351456,97.1118233259412
0.37,0.240858505245303,0.215956840270092,97.5121996867928
0.372,0.255170690531756,0.230456829896975,97.2867031093312
0.374,0.223637624686458,0.268296706977689,97.1462830228906
0.376,0.206843837031411,0.395424956170628,96.8478206383197
0.378,0.19984805329919,0.352669459690906,96.8305050641205
0.38,0.185084555447284,0.319034969811187,97.2642433816137
0.382,0.136773178310077,0.331453996192415,97.1495421535261
0.384,0.167369400457057,0.22810860400459,96.9403143432818
0.386,0.143432417434832,0.2337972608386,97.0647484382738
0.388,0.0897326630692246,0.261972962866575,96.8888431661877
0.39,0.0688608983967144,0.169511459904386,97.1649435278898
0.392,0.0358116249750669,0.295119613688608,97.0589233816558
0.394,0.0546683312346025,0.37756525737648,97.3295048129538
0.396,0.0219632954852673,0.319209287003768,97.1382278199348
0.398,0.011427704227399,0.253531890582177,97.0323577999035
0.4,0.00216847232573236,0.329443995064227,97.0725610643912
0.402,0.022193863214441,0.335019820362251,97.2093928208562
0.404,0.0123768919858597,0.301793185078679,96.9284077497866
0.406,0.0543660895354075,0.334596857275875,97.0400563217034
0.408,0.0781254754098753,0.357278286132514,97.0947093455763
0.41,0.0423960027315392,0.32315506227047,97.2888922050379
0.412,0.0037413800201048,0.344454490079596,97.1650308960278
0.414,0.0977920610979327,0.208831345316909,97.0037020607314
0.416,0.0707142586766125,0.231076934530032,97.1955816749076
0.418,0.0162830370546473,0.300009588211623,97.1238464997752
0.42,0.0498490681398183,0.381159855394874,97.0622293852987
0.422,0.0134323850263044,0.229816505162969,96.8296942086094
0.424,-0.0617390494718092,0.320742472366511,97.3678887201065
0.426,0.0265111129776329,0.191542352657576,96.8460413660639
0.428,-0.0459463024248746,0.321755445643798,97.0891293129898
0.43,-0.0823724383844642,0.305090841039521,96.975996061834
0.432,0.0653576288030323,0.355376896294258,97.2591216359165
0.434,0.0830632099436241,0.323910145687136,96.6459199215466
0.436,0.0619114555952257,0.298221624029775,97.2157840502719
0.438,0.0392232939846451,0.362117878601746,97.1592059823233
0.44,-0.110519832018079,0.230409548934809,97.0593490120447
0.442,0.0583635620068788,0.395622649109896,96.8169943577173
0.444,-0.0308917249827104,0.281637545770909,96.9598043839401
0.446,-0.0141602031210829,0.333166549821225,97.3158411262958
0.448,-0.0163385179576814,0.335971057188919,97.0428620970388
0.45,-0.0721107872776796,0.384844302754592,97.3834543953106
0.452,0.0155722805312746,0.362088953613897,97.1575102349177
0.454,0.0108472483157018,0.357858736673562,96.6999465052465
0.456,0.0451236335194979,0.360335374666013,97.021157004543
0.458,0.0184281984973841,0.279391405363902,97.0639188288625
0.46,0.0710069394764472,0.333932004341254,97.4401090757585
0.462,-0.0199208022027681,0.342727022397972,96.900539464906
0.464,-0.000852073642500066,0.270260784988535,97.1993865046677
0.466,-0.0331401972088873,0.377906469800268,96.689011856551
0.468,0.0949837898292899,0.302803687103242,97.076338676951
0.47,-0.0516260883080696,0.285714846796596,97.0049359463247
0.472,0.0801174558779078,0.335644289230188,96.9791927235178
0.474,-0.0319302519950629,0.400281813595002,96.9460112734381
0.476,-0.0115504846234344,0.358182827079106,96.9653247485322
0.478,-0.00672041398758834,0.301154516744096,97.1141598978805
0.48,-0.0182204087522043,0.341387277025958,97.2629622558595
0.482,-0.0280596269910787,0.359224708812826,97.0784949588346
0.484,0.0763495166451532,0.418110481159691,97.0778500062139
0.486,-0.0341918067329087,0.364506345174825,97.224627531987
0.488,-0.0687162957522878,0.265913549378554,97.4319162267952
0.49,0.0129856163804224,0.351369101392664,96.9056644292467
0.492,0.00891835307975206,0.359458281002903,97.028712414884
0.494,0.0281276194945404,0.342761303716702,96.936557713684
0.496,0.0589250267354361,0.352187289311592,97.2150106506177
0.498,0.0450060732635998,0.404569341266909,97.0470183449934
0.5,-0.0918585186717203,0.302505574088642,97.2007002828274
0.502,-0.0355678607719405,0.348376171028912,97.4537050553088
0.504,0.00450122475224942,0.285357801455962,97.3253572416673
0.506,0.0304644768637994,0.296700549833289,97.0695616095413
0.508,0.0910543468575234,0.365321652885363,97.0100788250306
0.51,-0.00885259595531155,0.30989063474512,96.9509849523815
0.512,0.0132468475561556,0.388400612895424,97.0185226389293
0.514,0.0617385440983537,0.310738807682073,97.1735938480537
0.516,-0.0598766669380597,0.376884101725513,96.7519980275854
0.518,-0.0434417118992919,0.415126114892208,97.1311277559207
0.52,-0.00792596226294356,0.383487118209673,97.1926054216595
0.522,0.00696664521168047,0.358021229238738,97.2469559806171
0.524,0.141828009696597,0.326123047424397,97.5899368920212
0.526,0.0156019166212497,0.291939453102225,97.2303819018487
0.528,0.0789408003922945,0.40526450384917,96.8803189769428
0.53,0.0458381185773947,0.293511492555131,96.9010335480276
0.532,-0.00339117304989858,0.391897487693344,97.0451215193087
0.534,-0.0284147687103979,0.264068277220078,96.9413817788515
0.536,-0.0195834611106628,0.430292898107136,97.3392014516992
0.538,0.0170963313996996,0.508612713426728,97.3277278397544
0.54,-0.0157196266045539,0.36305400094534,97.1660295433305
0.542,-0.050486661507317,0.478217012017248,97.0991883907253
0.544,-0.0189626362128202,0.401032673246768,97.0534122804635
0.546,0.0156702776840655,0.29633814982209,97.1271478662672
0.548,-0.0117019946643275,0.391638405780056,96.9813235385508
0.55,-0.0373676443295023,0.444702817352767,97.0063009703665
0.552,-0.03033169339686,0.290487995284625,96.7285305709414
0.554,-0.057498476067654,0.326788902945147,97.4407929139283
0.556,-0.00605198458761833,0.380940004711635,97.2451458521059
0.558,0.0229486686081223,0.387304777544063,97.1303142299979
0.56,-0.00645137756457722,0.443472918908887,97.2314684096579
0.562,-0.00885758827129472,0.380132314285069,97.3687161725056
0.564,-0.105051369758486,0.422825767028661,97.0165765119026
0.566,-0.0266147749831568,0.465166092874474,96.7660350127493
0.568,-0.082269568127116,0.446395031851394,97.1157961785531
0.57,-0.0706683875443606,0.444114741086175,97.4715038389825
0.572,0.0536173679038291,0.379278118870072,96.7510338335588
0.574,0.011769287223606,0.431096236398194,97.0916475551136
0.576,0.0445276652667988,0.385783629431097,97.3167468869852
0.578,-0.0178937851306445,0.374635543272688,97.3034109881549
0.58,-0.0249760671400709,0.447893540731865,97.5837232679909
0.582,0.079319476582655,0.47844027635724,96.8939595279394
0.584,-0.00449298545853898,0.425369397570726,97.1980413831269
0.586,0.0485313236055506,0.518458662761174,97.2039487279091
0.588,0.130238550018296,0.374295777677138,97.1824505448395
0.59,-0.0533413084755241,0.31208697629215,96.9500866272812
0.592,-0.0111317849926201,0.39687973829323,97.2126402792876
0.594,0.00853717978916468,0.430418470831859,97.2803990071735
0.596,-0.0154085021763246,0.371431419430172,97.1289759960893
0.598,-0.00942743539068056,0.301638711620943,96.7271523737392
0.6,-0.0228249110169406,0.514891975066879,97.5319523286657
0.602,-0.0461859834320314,0.292044552940443,97.0094637516659
0.604,-0.101166743824044,0.390137839056219,97.224409465448
0.606,0.0237468036440999,0.430182517527536,96.9518360324036
0.608,0.0908532286397145,0.475795147020094,97.1857811157488
0.61,0.07820158867119,0.482668964947917,97.0816465747891
0.612,0.00418707648144863,0.415677871445115,97.1353087322222
0.614,-0.0760648781176282,0.41665962744108,97.4345557767207
0.616,-0.0144764507444932,0.356403136567444,97.1535419499474
0.618,-0.0506162312448943,0.41928179444589,97.0565934869588
0.62,-0.0219007786828492,0.38301746726034,97.6227946292517
0.622,-0.0261584973143941,0.345637858934215,97.2463715928209
0.624,0.109383261504374,0.393102354527261,96.9802387633973
0.626,-0.00480210382338661,0.416509319910865,97.2222463184569
0.628,-0.0335666500279424,0.387394518948803,97.1100469613005
0.63,0.0312559644529433,0.42413866356656,97.2623248586522
0.632,0.0338585062438239,0.389528895125048,97.2001546443979
0.634,0.0472986177175296,0.422997754636106,97.1414827193932
0.636,-0.0719037223303455,0.377740812307129,96.9542895245623
0.638,0.120226369819555,0.338038323555935,97.3896655029665
0.64,-0.00362363475298505,0.398161984406478,96.8621654251172
0.642,0.0501860360778792,0.450229638938701,97.1594463250671
0.644,0.0552300532423163,0.463951692425679,97.1687258660305
0.646,0.0242474314791647,0.478632928540443,97.2152784914569
0.648,0.0317731542155344,0.399799694370768,96.87728509559
0.65,0.0430648561345909,0.563662082536946,96.9939552775761
0.652,-0.00287176782353292,0.441116107506201,97.1118951354526
0.654,-0.00429226845040121,0.423964062671191,97.1774888679423
0.656,-0.06236185433167,0.392458886186279,97.1321630288414
0.658,-0.0331758130851816,0.43839939030176,97.2271383723031
0.66,0.058501192888404,0.497567248839337,97.0569262542577
0.662,-0.0687909390996318,0.453353553945898,97.104331901939
0.664,0.0511298516027411,0.434575183232447,97.5213798833298
0.666,0.112047165911992,0.400251675444595,97.54133531277
0.668,-0.0474129601678023,0.413136325760522,97.213079051045
0.67,0.0422537038088798,0.39291380288551,96.9266537048884
0.672,0.0392355956715908,0.383879679959539,97.3068190619112
0.674,0.032069715731169,0.501817385085061,97.3082137746104
0.676,-0.0142223507555264,0.308707574495813,97.0062993113058
0.678,0.0233639404528303,0.376054895415595,97.3333575664535
0.68,0.0663146826554431,0.382456065294961,97.262560840296
0.682,-0.0286142807532559,0.462059275284564,97.4960808553713
0.684,-0.0439330396736229,0.438653420359147,97.1253321465389
0.686,-0.0208585675912482,0.348139065079613,97.1929547199596
0.688,0.0188284972268181,0.426525378216082,97.3533956368083
0.69,-0.0367569774120595,0.336219069190883,97.2901225982912
0.692,0.0384867987789783,0.402897330395409,97.0202351251727
0.694,-0.0462792933720927,0.451602705507169,97.2335053740633
0.696,0.0721523647056352,0.445894463542503,97.1087592805312
0.698,-0.0404376225976426,0.477520979278288,97.1039049131196
0.7,0.000745383061289004,0.444527642983619,97.3934318531335
0.702,0.0814867911827738,0.488778520274681,96.8819565297623
0.704,-0.00261639165812496,0.405215154991035,97.0873265037334
0.706,0.0412336231321533,0.517066559673934,97.2212528422248
0.708,-0.0318425963819852,0.514456391535433,97.5112651316464
0.71,-0.00867667981695681,0.422877390055265,97.2787982177353
0.712,-0.0623294006930912,0.429996331664819,97.1094287621669
0.714,0.00185099249459538,0.507287488469715,97.2446245493259
0.716,-0.0111873378617657,0.38627874880394,97.5083070132755
0.718,-0.0266823831457876,0.444913876967379,96.7905949821518
0.72,-0.0513383456474474,0.444717867323898,97.2767843971812
0.722,-0.0284261292956109,0.443757379944932,97.2502327594716
0.724,-0.0207466106743203,0.506584311566729,97.2996409960095
0.726,-0.0315850343643931,0.414138934493239,97.3959093038805
0.728,0.051464062706586,0.454829524539394,97.0816233589098
0.73,0.0359990838030753,0.570379310720175,97.2108417199793
0.732,0.0697704504262491,0.540786886944355,97.1316508336452
0.734,-0.0146064814524241,0.489826699891624,97.2890832898112
0.736,0.0846311805287782,0.400787511098977,97.2755068588081
0.738,0.0158696699201769,0.399784336829224,97.6737595108462
0.74,0.0789601648139765,0.474167722741964,96.946744565876
0.742,-0.0126149060154982,0.512227766151548,97.5623097936253
0.744,0.0305661789174052,0.375212936455734,97.0492076829643
0.746,0.0223326119446886,0.462788947559081,96.4710510923912
0.748,0.00129907795360285,0.401186896015579,97.093911120706
0.75,0.0370413701762685,0.461596556763718,96.7707783552535
0.752,0.0725794760411336,0.513200777102775,96.9825146873741
0.754,0.00947489244288393,0.511359413226304,97.1332994164597
0.756,-0.0153853165730573,0.476878385226239,97.258042476278
0.758,-0.0238423048613353,0.528496850303885,96.7468974772608
0.76,0.0118705022639165,0.433589382166194,97.1743925522245
0.762,-0.0314397995372666,0.500206716042064,97.2148392616265
0.764,0.0370089510343576,0.44993404949499,97.0819286011557
0.766,0.00863032494098368,0.567787051773445,97.307987062842
0.768,-0.00388556388941363,0.446610289975452,97.0591497184839
0.77,0.00673330122781332,0.441637243854905,97.0680154327494
0.772,0.0434224361655079,0.449224078105258,97.2123530415265
0.774,0.0416053952631736,0.419615389662053,96.8473211237519
0.776,0.0362939974620793,0.480583931268895,97.086959088288
0.778,-0.0445062944782968,0.539102853394367,96.9865166062301
0.78,0.0782959527176923,0.413925531828244,97.2706972202515
0.782,-0.0188162222947543,0.543325261170798,97.1822785958517
0.784,0.0735383610867049,0.538253920719626,97.1504593499314
0.786,0.000107494293750469,0.492790651098775,97.3378702224987
0.788,0.0498970428638149,0.484201810974548,97.1594183321784
0.79,0.0788397724762209,0.536693826197183,96.8153389730285
0.792,-0.0568268620119311,0.487813963169229,97.1528565511672
0.794,-0.00898021173048772,0.51204559706897,96.9182996251424
0.796,-0.0532667474554849,0.495173178818893,97.1491830531439
0.798,-0.0472861459466762,0.489803663675001,97.3380113746061
0.8,-0.0369851630383585,0.472148613331537,97.2622479507846
0.802,0.0949107933450381,0.567688999785964,96.8315111614444
0.804,-0.0510336122586807,0.427569569644106,96.9622935905447
0.806,-0.0378741219101768,0.516450084394876,96.8970352195318
0.808,0.0711684792177896,0.503435933823366,97.1489338675755
0.81,-0.00085163030148028,0.547189173506642,97.2724382499346
0.812,-0.00763315399081319,0.423004096822802,97.0465064080296
0.814,0.0417666837892767,0.526454558519767,97.3421530953276
0.816,0.0282794198389537,0.513853392433004,97.0132022940642
0.818,-0.0295243406295708,0.484477894158925,97.6756771572083
0.82,-0.0395085292604919,0.545825903385508,96.7526929036308
0.822,-0.018694785641273,0.447180287167099,97.0710482772121
0.824,0.0794189696926251,0.489790376683713,97.2505891370926
0.826,0.0537984556269431,0.400588444050281,96.5706003638875
0.828,-0.0688335783316059,0.54698658339914,97.048569516688
0.83,0.0182338147759991,0.473946199781919,97.2251121444138
0.832,-0.00546190550309367,0.489535972606077,97.035314062558
0.834,0.0710385199279684,0.466811733611379,97.1318262368475
0.836,-0.0268138721778371,0.476803344014557,97.1520008796423
0.838,-0.0411001307533446,0.504474189982738,96.9836442586311
0.84,-0.0367679381508202,0.497079553923845,97.1203145312417
0.842,0.0554676789276573,0.453552535080039,97.2957549404133
0.844,-0.0430826541121002,0.507045654592238,97.1897484349065
0.846,-0.0355808631563039,0.351766588108174,97.1696718299797
0.848,-0.0372093787319436,0.46676062957611,97.3144295558632
0.85,0.0868675901823828,0.359074172759404,97.0899223110559
0.852,-0.0344402633577908,0.497903791695153,97.1584944435116
0.854,-0.0237442527428873,0.545562077568222,97.3216079859629
0.856,0.0602382316852226,0.418181485826223,96.9077813121348
0.858,-0.0163851349930039,0.495722002815742,97.3994754161358
0.86,0.0144583281618797,0.481760167975348,96.8719310720924
0.862,0.00217931989913311,0.436354425784774,97.2859624060562
0.864,-0.102275779027127,0.617018034303436,96.7073879379393
0.866,0.0381773038092803,0.469694649272137,96.9494226329023
0.868,-0.000299676149307235,0.524619922339132,97.3579071950384
0.87,0.00577497864028109,0.518768623314424,96.8470859264021
0.872,0.105958523632988,0.525937114558267,97.0316299247324
0.874,0.087210546428856,0.486159049759305,97.2982333113613
0.876,0.0549606793385389,0.60104461552956,97.4881513469539
0.878,0.0532845950769075,0.488249438873015,97.4474891381634
0.88,-0.0536521290047018,0.473719668909146,97.2055069352661
0.882,0.121740672603689,0.633158191468238,96.954506404876
0.884,0.071961479008696,0.554632404977799,96.8308344397608
0.886,0.133930828299138,0.478485407382956,96.7413954185413
0.888,0.158287585200937,0.492905365029438,97.011155623789
0.89,0.20766865826366,0.495738361415541,97.1904154967418
0.892,0.116735549896775,0.538461068765462,96.9494713071212
0.894,0.115322363870283,0.49101449332881,97.3398753668446
0.896,0.169100536968961,0.498986795699269,97.1039415256211
0.898,0.0599554655045097,0.532574831923871,97.4793094937585
0.9,0.117134160323163,0.636074484767174,96.9208120858509
0.902,0.039033960489702,0.566641619540283,97.2204958219193
0.904,0.0227607504770748,0.502151791352274,97.3110682067876
0.906,0.0692749662331253,0.535634443532876,96.7511214498681
0.908,0.105618378521421,0.4664906635247,97.0529129628872
0.91,0.0956545877242244,0.434575135223811,97.0631492543353
0.912,0.0268290188314723,0.425953426001625,97.0502208726028
0.914,0.0746632247196059,0.530891967840659,97.4470736803106
0.916,0.0402425976105493,0.450060352082551,97.3268605059608
0.918,0.014882922926042,0.441823422738752,96.9673376938645
0.92,-0.00358332602602677,0.531841543000184,97.3626427497611
0.922,0.0743849748244558,0.428146101848817,97.2072786647149
0.924,-0.00292212329129125,0.521064422093117,97.2477129423736
0.926,-0.018484479600581,0.530020531988579,97.2743733828391
0.928,-0.0229124399494136,0.467259242256246,97.2340081291403
0.93,-0.0709451439752805,0.422531271368651,96.9905475086337
0.932,0.0717589463492418,0.463786044450226,97.0217304747435
0.934,-0.0188496608277439,0.536485916269717,97.2431782714635
0.936,0.0277405995660283,0.457460809558535,97.1287463572066
0.938,0.00669266117727973,0.520352238150172,97.1191091150969
0.94,0.0478121320973591,0.492366676636798,96.8057800581566
0.942,0.0299795857846352,0.41250065713009,97.0983966438519
0.944,-0.00789436765749921,0.600315128245937,97.2672194867689
0.946,-0.0139712055376124,0.427078012166982,97.0215549132023
0.948,-0.00906553074884933,0.524179740615955,97.1434463439143
0.95,-0.0652843042825732,0.51948224316123,97.2955580741897
0.952,-0.0758725917009612,0.55222334989025,97.1476676576074
0.954,0.0510999902429091,0.500146037344099,97.1176172376535
0.956,0.00223405836624323,0.467157133838159,97.2323414780174
0.958,0.0410675684810615,0.557133238422046,97.3261679460849
0.96,0.0373646762303705,0.524129305183418,97.3428524358238
0.962,0.00493981265362606,0.497224739280285,97.1435974920768
0.964,0.0297124355999514,0.451615266344731,97.514157337394
0.966,0.125293955446422,0.507015955820286,97.1772412945839
0.968,0.0391958064366766,0.444065010615314,97.1829338832093
0.97,-0.0493967464315582,0.545090179734456,97.3049590193094
0.972,0.0621010556763757,0.516443002290358,97.1293682039203
0.974,-0.00843738755783893,0.576035303028667,96.9777076714506
0.976,-0.0868869270071881,0.35176212991878,97.4129441032544
0.978,-0.0207697431557381,0.567478931609394,97.1824904242737
0.98,0.0154618570595365,0.620308734099581,97.4835844108581
0.982,0.114323970223266,0.42269561640502,96.9984704989018
0.984,0.202651853677953,0.559166092000303,97.152333833459
0.986,0.360034929830828,0.504031693077744,97.1216226769632
0.988,0.687092051365322,0.519257230689,97.1129878197069
0.99,0.827782246451914,0.43252928950232,97.4687782956822
0.992,0.903265431554386,0.49201673326294,97.055768336362
0.994,0.979949979774071,0.466446155556427,97.044854784936
0.996,0.935938224851259,0.57855053920264,97.29997775955
0.998,0.753224758387797,0.437675961313733,96.9366482837951
1,0.549090466237901,0.416810335241531,97.3088304449235
1.002,0.36382156170856,0.495614184166379,97.3672635970598
1.004,0.117576810411475,0.428298922897573,97.4447813475063
1.006,0.103054332991666,0.548555766862108,97.1757091469027
1.008,-0.0611509201287729,0.45921687001964,96.8875442726154
1.01,-0.0149609731092188,0.460876983590657,96.9542598660563
1.012,-0.0844614817582075,0.540941125643405,97.1485176671246
1.014,-0.19209315443969,0.485400604320393,97.4083672153416
1.016,-0.0353047507935029,0.511314129113054,97.2375477317717
1.018,-0.0920683630068841,0.497479356395824,96.8860118616156
1.02,-0.016476757731607,0.471064853644121,96.8732582198205
1.022,-0.0659681864747819,0.496692229641549,97.0304809340808
1.024,0.0759407901317712,0.578547274242543,97.1266646811625
1.026,-0.0425715430232375,0.542469152695676,97.3128025894647
1.028,-0.0048501206407567,0.468235937236725,97.4682385210233
1.03,-0.0624483905334322,0.52212634719422,97.582462614779
1.032,0.0405910884592761,0.451242140480069,97.0594840385769
1.034,-0.0334318525299853,0.573261756000147,97.1693495445359
1.036,-0.0112211942332112,0.465707436584148,97.3924690620623
1.038,-0.0262585550306241,0.509034315620152,97.0781302443046
1.04,-0.0311702073135415,0.40528137274868,96.9606131409498
1.042,-0.0372012819931218,0.462572229789133,97.0710423612164
1.044,0.0556488934671241,0.502816450416606,97.1453503467719
1.046,0.00888108334118013,0.561363634822787,96.9237647930658
1.048,0.0636573959958044,0.560651205945086,97.3286252399885
1.05,-0.125349200849062,0.470962664477334,97.2278563275476
1.052,0.0122003799654812,0.404242943715552,97.3020415899712
1.054,-0.0839718372946946,0.543203159060719,97.2099456535969
1.056,-0.050843576816636,0.527349254234431,97.4997905793901
1.058,-0.0118650311493056,0.442077881479326,97.1664373448304
1.06,0.0181262674683186,0.50809721825426,97.3093216696417
1.062,0.0719608549209882,0.451276611819069,97.1967541653522
1.064,0.0159132797411191,0.404295872385838,97.2385386962787
1.066,-0.140374503895232,0.504480614142379,97.3202279421113
1.068,-0.0350989019897298,0.49052790817082,97.371746786247
1.07,0.0602953096546833,0.490436121609631,97.1009308799323
1.072,0.0659676788020153,0.49753549694967,97.2200059343035
1.074,0.0370550214391835,0.49152344897518,97.2042925859566
1.076,-0.00128280169817159,0.530619752440702,96.8033070425697
1.078,0.080005999053438,0.51859492323075,97.1251699492366
1.08,-0.0362839510324561,0.534378409843784,97.2412698703142
1.082,0.00963987420672327,0.568273730520723,97.2309119510283
1.084,0.0200092066557124,0.503621119419432,97.1463737234266
1.086,-0.0801536273130601,0.530887115050317,97.3232794073442
1.088,-0.0243892759359545,0.468945367491497,97.4666308852413
1.09,-0.0232055054933205,0.45548530015378,97.1875132936335
1.092,-0.0388857091675374,0.556479050799536,97.1452407283293
1.094,0.00712015021859161,0.558646987252034,97.4698060686566
1.096,0.0211797399606644,0.614271229385193,97.2367934418517
1.098,0.00206256928794738,0.582065689789026,97.1598757206504
1.1,0.0380322046851013,0.537456805318592,97.3495345022542
1.102,-0.0478206504577379,0.494366892080844,96.9917726563155
1.104,-0.0221855022573201,0.488487233211264,97.222283456959
1.106,-0.0474721479376966,0.487731459478109,97.1528755326184
1.108,-0.0173662002884395,0.497665203852992,97.1132843762844
1.11,0.00801623326102824,0.50817759981736,97.4237788300592
1.112,0.0586409805375353,0.455269740544172,97.0381631258889
1.114,0.0129512092007385,0.542370568717065,97.4919314284432
1.116,0.0607711810456213,0.485868721900199,97.0991620679031
1.118,0.0997807390116804,0.48107580507594,97.3652997905055
1.12,0.049638518707256,0.522182615729296,97.1870165709027
1.122,0.0848402059498687,0.420192421477339,97.4351367743841
1.124,-0.123275034803069,0.437176256545995,97.5342954669412
1.126,0.0600162316152268,0.511527176280227,97.3314550922942
1.128,-0.0234729407726985,0.446543783556611,97.3019934327327
1.13,0.0903557035872802,0.522574954289124,96.9299163027335
1.132,0.0470223994353669,0.523347856107631,97.3098501185951
1.134,-0.0584761784269043,0.555675066360338,97.1031886277807
1.136,0.179812430070661,0.517218074894992,97.1190972072529
1.138,0.0137791448132498,0.46383217097328,97.1534466011941
1.14,0.184765460365577,0.510094511141798,97.504245567515
1.142,0.127396347178373,0.392801583674681,97.3649029370707
1.144,0.159129917022118,0.436006543182098,97.0718090990607
1.146,0.129151880541595,0.572407607697361,97.4933122588466
1.148,0.125883657234342,0.443390783444855,97.0171300307531
1.15,0.199457987710655,0.509313020309284,97.5147959053819
1.152,0.155746741106595,0.391729706834222,96.9564662596976
1.154,0.19455930983894,0.526116045245071,97.520689323808
1.156,0.270416817009838,0.424680985124426,97.1108070273823
1.158,0.147187418910916,0.542693030795277,97.009388555659
1.16,0.138713147112847,0.498974473070617,97.09526958822
1.162,0.219029661107276,0.537969899311812,97.2309522893663
1.164,0.18092902134731,0.438071167526977,97.1440511459964
1.166,0.209876783348862,0.503222153175111,97.1987018418699
1.168,0.246360533326343,0.486959106958709,96.8157985418716
1.17,0.200964338430249,0.547910293599024,97.1756502913789
1.172,0.218857288376247,0.441315001376752,97.4377495855752
1.174,0.304662266688433,0.4476232229404,97.2074453529352
1.176,0.268668824862593,0.461441993416843,96.8689996042581
1.178,0.319904183300825,0.511026365382367,97.2354038053367
1.18,0.285822633718897,0.470082052298257,97.2727730271565
1.182,0.341793785930408,0.472512799975066,97.4323624023588
1.184,0.246229246906888,0.414916543958898,97.6096176722376
1.186,0.307934622031562,0.483658921916561,97.3796352589207
1.188,0.266683179053312,0.472343047605767,97.1019798795372
1.19,0.322037902954955,0.564848494107452,97.5478389760567
1.192,0.22488506250393,0.3889566722372,97.2478806914213
1.194,0.323997193581421,0.52293156799256,97.3204583706428
1.196,0.238101218591736,0.400888266670076,97.2562133642295
1.198,0.285496805869106,0.581857658375199,97.0224356920971
1.2,0.280214625399348,0.547119798814878,96.902819967163
1.202,0.264609972326749,0.497959270824713,97.0026562766323
1.204,0.236404831875353,0.42953631238276,96.978194043177
1.206,0.204721091198988,0.457488031414302,97.3630728967518
1.208,0.201233134104676,0.516546557875437,97.3733043640927
1.21,0.130523308791254,0.512377038532577,97.3035527143276
1.212,0.168554794795801,0.500945894639441,97.4677216141219
1.214,0.279769267738553,0.446353807766364,97.2693470317994
1.216,0.176952179665034,0.490186188680638,97.2652194074583
1.218,0.156739798038429,0.522774342568056,97.3632769711258
1.22,0.160221330568611,0.436272580319522,97.5061393930294
1.222,0.0518533792252658,0.453107430639333,96.9701051964733
1.224,0.0390656950574766,0.504519470224665,97.2230719860196
1.226,0.102950239038106,0.360057214555056,97.1581391294019
1.228,0.145789034167937,0.523476505484724,97.2876654657484
1.23,0.125038222221949,0.442292306607917,97.1366494940984
1.232,0.0260807088856455,0.395216840447057,97.0040348354282
1.234,0.0319500176495375,0.408172176994119,97.1692483039776
1.236,-0.0183154001258599,0.433781619392997,97.1965915755336
1.238,0.0120212896602161,0.467516933721768,97.1186869723006
1.24,0.0584237730868727,0.362192385045445,96.8229389842773
1.242,0.0174143890415476,0.557332375941661,97.1616781990348
1.244,0.0302726438962627,0.437587677782785,96.7070013007216
1.246,0.0154103383280917,0.414378525947749,97.1745756721117
1.248,0.00972361257801989,0.436054615090426,97.1671710815519
1.25,0.0341856355960568,0.532581562121096,97.3860081207215
1.252,-0.044088098006248,0.456956143528188,97.2688214625228
1.254,0.0680695559038979,0.480599700362978,97.3309844318732
1.256,-0.0139911049952983,0.402044353311919,97.281237727096
1.258,-0.0426339687469931,0.50171302836489,97.1331557976962
1.26,0.0730921084508576,0.356665042241528,97.0186816361066
1.262,-0.00225339962417137,0.494299943972957,97.1908397160651
1.264,0.0902702028366696,0.45756168973714,96.9175249104486
1.266,0.0223784187703834,0.396890325733402,97.3048890423794
1.268,0.0434724868550746,0.460307866838938,97.5099220352793
1.27,0.0369558179411391,0.550781983367084,96.9987659143469
1.272,-0.000855058397055995,0.413605629768215,97.3034462907869
1.274,0.0836050348686478,0.341708774628681,97.1281565072406
1.276,-0.078052438810183,0.517069814230214,97.3935278770861
1.278,0.000651538668714313,0.368172441179605,97.3790949305529
1.28,0.0539260075484995,0.425263974361863,97.2546980012521
1.282,0.00867467346765085,0.491860656937691,97.0264974045246
1.284,-0.0233731827376636,0.453352362525386,97.1980325530636
1.286,-0.019734134150477,0.544862122568547,97.3419221003445
1.288,0.0401048693117822,0.458232895378101,96.930910913053
1.29,0.00487498016177439,0.425775535700238,97.0769398105151
1.292,-0.0123719371168589,0.502611090741726,97.211778374792
1.294,0.0171038473053376,0.350534391175921,97.1642988434993
1.296,-0.0420309652640744,0.457066041183022,97.0805355325496
1.298,0.0128716150718552,0.463375373149458,97.3189699752133
1.3,-0.0189205193620084,0.493363355354648,97.1570647631057
1.302,0.00437739570225592,0.480461886649463,97.3040783091325
1.304,-0.0358154818429102,0.383948139114846,97.4451274659512
1.306,0.0209122821773464,0.453817777919213,97.0304561997027
1.308,-0.0431353194083582,0.382886656635103,97.250874894379
1.31,0.0124061294613535,0.513235100778593,97.4499079995082
1.312,0.0257430985662124,0.372618554582419,97.3911924851213
1.314,-0.0378897918909887,0.445998847959895,97.168033911861
1.316,-0.0296575499815101,0.348239381449624,97.4047313782032
1.318,-0.0320505769928665,0.43090071458598,97.3537641076458
1.32,-0.0106702168416672,0.377829872928823,97.2747896535089
1.322,0.0715477462383429,0.481807793552076,97.4098894126401
1.324,0.0290099883192805,0.483782667780538,97.0421393230846
1.326,-0.0437410888108731,0.478649033397452,96.9813448433015
1.328,-0.00489806514836619,0.428131384593213,97.248411888017
1.33,-0.101190421029978,0.427642197229221,97.0948236148554
1.332,0.0377523341049504,0.406492464891696,96.8260871807578
1.334,0.0630189336862246,0.616028640528407,97.8439119703643
1.336,0.0270626388284288,0.287686744170052,96.7106974618666
1.338,0.0127640945446535,0.429808259784873,97.4988871616105
1.34,-0.0559046287859356,0.432240854113012,97.0352630825301
1.342,0.00703654581261681,0.520478093515866,97.1399608051533
1.344,0.010354754765032,0.386371177047917,97.3263800624174
1.346,0.00866057541054648,0.440197697538958,96.952132429018
1.348,0.0533174046297232,0.26519539405956,97.2870729230596
1.35,-0.0286605065225725,0.491055296735373,97.6048185198256
1.352,-0.0584279748843788,0.460230012508299,97.4080491945604
1.354,-0.00860471634733498,0.398046913641627,97.273918231785
1.356,0.0220128542664495,0.462523686968694,97.2153189359124
1.358,0.0425861036364971,0.368211498178487,97.0101210022178
1.36,0.0615520096215519,0.425385881768902,97.2532138590568
1.362,0.0037790398394876,0.391722716419548,97.2841746660503
1.364,-0.0380684319612326,0.388575728705977,97.5872300785897
1.366,0.0310398309635212,0.419422979819125,97.2769080920372
1.368,-0.00630641510672751,0.45242179011484,97.2663911065079
1.37,-0.00350944266922508,0.44324754583428,97.2775592017009
1.372,-0.129104123582488,0.45119563988345,97.5689682641214
1.374,0.00160178778622683,0.365123793131517,97.246117471265
1.376,-0.0271123309070856,0.451668405642948,97.0310734969703
1.378,0.143799937409955,0.388891115471564,97.3682468534917
1.38,-0.0708746722802559,0.380671700958421,97.0744579104131
1.382,-0.0959564961099795,0.486714414552149,96.9512167915947
1.384,0.00155636865594621,0.393686417809986,97.5315730342999
1.386,0.0798997710817981,0.40145458371864,97.0063754843738
1.388,-0.0534898056699358,0.380297056383965,97.5729905047899
1.39,-0.0294983164407686,0.403081657150551,97.1267412397477
1.392,-0.0849030684546116,0.411279028439981,96.9661707631492
1.394,-0.0685705634022983,0.407353203801232,97.1356152625604
1.396,0.00589466263618658,0.378376543782737,97.7621895824838
1.398,-0.0234361993750135,0.413811249666949,97.3671189073831
1.4,0.0748176388762612,0.414237860841126,97.1017223870953
1.402,-0.0479923276662794,0.369398268667903,97.4425068873437
1.404,0.00518934709350088,0.402907662633971,97.2132233036375
1.406,-0.0675108597790422,0.434842219747556,97.1724846337454
1.408,-0.020192198806506,0.407460660322953,97.422790671639
1.41,0.0598254657231032,0.445593572925575,97.2245999452838
1.412,0.0318913051657931,0.437684824625822,97.2783428558808
1.414,-0.00620019591929627,0.396121412115364,97.2673536542975
1.416,0.105319726763741,0.351186808662757,97.3691789837856
1.418,-0.0109247246363825,0.499415060496827,97.2403061112093
1.42,-0.0882345830211473,0.426891358212655,97.2289499524245
1.422,-0.00659985697798301,0.39053137975626,97.3083955015517
1.424,0.0234712265970514,0.415791504149305,97.3738415633692
1.426,0.0713044823055187,0.354772634143457,97.241780181996
1.428,-0.00938622906989259,0.355434582330245,97.5763063046387
1.43,0.00166486828908794,0.386487237673261,97.0739450590659
1.432,0.134027158012241,0.320008458628773,97.5388235164468
1.434,0.0204948791240587,0.373477484328674,97.1514264378524
1.436,-0.0217805210070628,0.320506382049164,97.2814245729395
1.438,0.0404187847616306,0.290769421634557,96.9293335957772
1.44,0.00721690878958241,0.302745348623965,97.4304145486483
1.442,0.0197571749596083,0.440429113729268,97.3437889709131
1.444,0.0535333896630146,0.401117117993067,96.7940482880419
1.446,0.0172224608550132,0.465837914622621,96.8856144955759
1.448,-0.0229251331663336,0.353710464563194,97.310850447269
1.45,0.0165549411885693,0.355809754191421,97.4395241022169
1.452,-0.0476505113448704,0.372631127695088,97.2971610421352
1.454,0.0523677862446949,0.360021723214858,97.1294007250338
1.456,0.00295989153642029,0.42521849153909,97.2228039501038
1.458,-0.0374230574095241,0.348265792809872,97.4294757893109
1.46,-0.00628043430844698,0.368985089095012,97.4939362136363
1.462,-0.0547913907147706,0.33263906728331,97.502580651173
1.464,-0.0024501236110558,0.444221452188687,97.4372343875331
1.466,-0.00759544985113218,0.400971062220626,97.3137763230042
1.468,-0.000771093732686103,0.403780779453087,97.3980287506014
1.47,-0.0884704865857694,0.263047196886531,97.2322475068239
1.472,-0.0553706313115457,0.410946763938513,97.255163261607
1.474,0.0726963285763083,0.510327981840878,97.2440433324527
1.476,-0.0601080380456808,0.38548262130911,97.1960801203667
1.478,-0.0306273964092417,0.29849063588246,97.3790086096688
1.48,0.0394476104042283,0.3894144124501,97.3897635296406
1.482,-0.0160415471695844,0.40539050326005,97.3333333934608
1.484,-0.0109581647207322,0.326430894648392,97.3523411991982
1.486,-0.0747424912606354,0.297723892045175,97.130676056012
1.488,-0.00552393412592808,0.363772639274062,97.3647872519021
1.49,0.00513093475151754,0.436679121091914,97.4278030310206
1.492,-0.00470302179823054,0.442885258155211,97.2397667870442
1.494,-0.025784750168819,0.433007888161872,97.5788630708974
1.496,-0.0466958817508238,0.336008177930428,97.3154879880779
1.498,-0.0236099160060899,0.410295436423651,97.1922560142194
1.5,-0.0623335837149264,0.25461936495044,97.3381823282768
1.502,-0.04582978717277,0.390274307105531,97.2620169041533
1.504,-0.0571151685359912,0.424300533046788,97.3821046117164
1.506,-0.0492230268750499,0.392258128312288,97.0667304723556
1.508,-0.0421900422899164,0.41606554282049,97.4059827753895
1.51,0.0757898766738102,0.395017483865852,97.1527085793986
1.512,0.00504776528954148,0.295434117714597,97.1264283739913
1.514,-0.0125514280606064,0.310522292314117,97.5095265754774
1.516,0.0205944749189999,0.369576722861036,96.9741859464897
1.518,-0.0562265205808791,0.380171793743776,97.1842603759602
1.52,0.0415082213224191,0.294322636234816,97.1834809747289
1.522,0.000559475342496186,0.37880378259911,97.2458098374089
1.524,-0.0233507635704659,0.369058868867478,97.3466834369378
1.526,0.0607651396556215,0.341367130220399,97.4203115829223
1.528,0.0376576704807766,0.42905708596646,97.0299374767463
1.53,0.049636490634426,0.341649718358907,97.4050734725669
1.532,-0.0196175393070318,0.323853350677028,97.261666895263
1.534,-0.0169011824933876,0.348376508733955,97.3101530014823
1.536,0.0397317626244605,0.364161450075329,97.513601886743
1.538,0.0155388966672949,0.157633578244455,97.1124535895262
1.54,-0.029980130752771,0.386900585465799,97.3875788772704
1.542,-0.093042739389562,0.287125265180506,97.3178300577811
1.544,0.113323643310874,0.323157198641134,97.0438100763308
1.546,-0.0410143315629885,0.343340377664999,97.2144730619455
1.548,-0.0301814204162608,0.389954641065721,97.0584570952152
1.55,0.020462230123588,0.353001954893011,97.0938008200576
1.552,-0.0732398334677188,0.363342158703416,97.524822385358
1.554,-0.0317288537243775,0.344397673167207,97.7331590157239
1.556,0.0528161954516288,0.28477711990889,97.4444373504579
1.558,0.0120831730678464,0.315134754587657,97.255007673372
1.56,-0.0149646760074424,0.253499093920594,97.5368216628271
1.562,0.0235888441684822,0.332992943660994,97.1040075626361
1.564,0.0267992130891939,0.371000456385655,97.3289450460888
1.566,-0.0674726422105905,0.282147552052612,97.5375039992585
1.568,-0.0237191076171922,0.362648261259215,97.1221870752428
1.57,0.032869723415127,0.31361711227156,97.3080312542951
1.572,0.0629318354867646,0.361554789265184,97.1694088705628
1.574,0.0273992224059121,0.329227389439265,97.0886723097576
1.576,0.00623796429218995,0.3558138158808,96.9333029191828
1.578,0.0282494703359285,0.271411886529508,97.7060637317418
1.58,0.0334059760409791,0.328457156528778,97.2575248480329
1.582,0.0818393076388048,0.326463134242977,97.3795485487537
1.584,0.0297243631127585,0.326807354517562,97.2639346056596
1.586,-0.0377569409234985,0.361060910570989,97.5345207061414
1.588,0.0752058329333224,0.349476999999345,96.9620457913551
1.59,0.00496390553691005,0.246884247355311,97.5532368175872
1.592,-0.0110891357704161,0.310833345817058,97.2617393659082
1.594,-0.016897107430482,0.399383497041402,97.6212448609051
1.596,-0.0144743420168098,0.262322340855223,97.3239183892275
1.598,0.0032043077763023,0.280081445607872,97.223621136221
1.6,-0.0513840408715264,0.2627926133775,96.9644900346262
1.602,-0.0225979964152378,0.305141829081997,97.3778351729521
1.604,-0.0239617249897088,0.24209252658199,97.3397642389819
1.606,-0.106986573758847,0.361504258198668,97.1792299508423
1.608,0.000403347861238973,0.352615561450268,97.2797489047837
1.61,-0.0290821454641378,0.201892844951941,97.4980479088681
1.612,0.0859269836610183,0.368965637539364,97.2415314562173
1.614,0.0086150320619824,0.294269186920092,97.542882417405
1.616,-0.038555813755459,0.204430031049112,97.5762387137393
1.618,-0.078004699946076,0.290370144205293,97.4310283750773
1.62,0.00376958758707039,0.31989077111011,97.3105175072173
1.622,0.00799611870532114,0.356789867598752,97.4952923545839
1.624,-0.0248095499149872,0.312726632545937,97.3534047561849
1.626,0.00406012552813183,0.32242874584446,96.7402413963354
1.628,0.0179114921482267,0.351218774437384,97.1798202083138
1.63,0.00832886902844941,0.195716797586817,97.7250458741991
1.632,0.018983259271209,0.316624690662385,97.1776575342449
1.634,0.112463964470558,0.178963269975088,96.8520918386907
1.636,-0.0526350551682321,0.22397650218258,97.1044283220005
1.638,-0.0336133698731704,0.208889491175983,97.1946459198062
1.64,0.0917969128812943,0.266060242862693,97.2875410030267
1.642,0.0290396128747796,0.228334717866095,97.7616405479813
1.644,0.0547029908229024,0.170909312816366,97.5725022353897
1.646,0.00668962501553721,0.245117955417535,97.2172024219464
1.648,-0.0217116751559825,0.171927700621453,97.1771258215285
1.65,0.0480029918087703,0.265362293389265,97.3690185816055
1.652,0.0233021659260373,0.214073357543433,97.2936537911475
1.654,-0.00765351985750761,0.239570334890303,97.7597911789177
1.656,-0.00468107179034967,0.386260542364525,97.1070385726631
1.658,-0.00217732311878519,0.313777652151,97.5664876377697
1.66,-0.0822210596043794,0.270771027759484,97.6612193996442
1.662,-0.0920128685089524,0.189081034341828,97.2739171165175
1.664,0.0186181923744875,0.191545676406887,97.4789698792325
1.666,0.0389767336744967,0.232914217603504,97.3706938447614
1.668,0.0979160516021199,0.213290671738679,97.388915851448
1.67,0.0137311948497333,0.204463063261794,97.2078824355359
1.672,-0.071080448563218,0.265984824924722,97.4508513736139
1.674,0.0212304428554373,0.176794575023526,97.4881696327312
1.676,-0.0819370904324451,0.237845325415679,97.3557049817366
1.678,0.00919999233421101,0.225727042498109,97.4958474920984
1.68,-0.0551419219872998,0.168271552326426,97.6351944444896
1.682,-0.0331669970055183,0.213734023550244,97.2720608834478
1.684,0.0803027967303234,0.224212075924479,97.1712878355319
1.686,0.0136380235129727,0.260744370065739,97.4597059424612
1.688,0.0240268580039713,0.219699640280752,97.0461498665343
1.69,-0.0458663438339129,0.175600492225952,97.5150122049835
1.692,0.00351113978817175,0.193562757953875,97.6214596667225
1.694,-0.00790399675589094,0.267996876213442,97.0922681041125
1.696,0.126409970872109,0.196008851936438,97.0148965620793
1.698,0.0676664885894077,0.283082418975976,97.4185753184194
1.7,0.0509786080921838,0.11277100183494,97.2444444006666
1.702,0.0765803250228712,0.228095829902205,97.5791192887669
1.704,-0.0412117610154996,0.198734367198413,97.4438565186531
1.706,0.106918397570379,0.278546814546293,97.5941362977576
1.708,0.0984787487183747,0.210413696921097,97.4269377074862
1.71,0.118903118029175,0.262326301392796,97.161804105019
1.712,0.0790537657895404,0.252834415013051,97.1349656082108
1.714,0.0608612229368923,0.184522003368916,97.1094426811415
1.716,0.111784627714251,0.236975089900969,97.3760328934058
1.718,0.111281937102805,0.247749252974702,97.2650135822872
1.72,0.0685448116757129,0.24742470737644,97.6208475374275
1.722,0.208198300949591,0.15494237142207,97.3823858882678
1.724,0.15948636543791,0.23627095725036,97.5294047236919
1.726,0.0836219601397436,0.209462320673377,97.7432568236213
1.728,0.190638740050783,0.268321362298624,97.3589869552733
1.73,0.228222349946785,0.24154854276635,97.1829827476591
1.732,0.141286838079986,0.126291261497288,97.0445746354302
1.734,0.0460158711867096,0.292794962905204,97.0349228801674
1.736,0.257695683253675,0.16071967951558,97.5929841344451
1.738,0.11380530314415,0.275145978897733,97.3390911053719
1.74,0.0941629168650756,0.186642998275874,97.2042700590954
1.742,0.177342260251592,0.112632164636016,97.76529641718
1.744,0.0615453707890659,0.191260746383243,97.0923000859563
1.746,0.00918218195072788,0.239697000292364,97.5482888237401
1.748,-0.0336091367566201,0.149430183865417,97.2648659590115
1.75,0.0587479283275975,0.236525939117544,97.0609175704244
1.752,-0.0202999155363629,0.194600716822983,97.5444310651855
1.754,0.0439763569426925,0.313081097234202,97.2835532416051
1.756,-0.0981453279028291,0.150127033723994,97.4362775863057
1.758,0.0250251277526303,0.197915829945015,97.2680238365076
1.76,-0.144344634860535,0.15421724880495,97.4980237210479
1.762,0.0440519660634723,0.15630904846722,97.467685154295
1.764,-0.0552715522091293,0.230560012490708,97.5948563852257
1.766,0.057661023629824,0.162674716097858,97.5278747553493
1.768,0.00935604787205877,0.222640945117374,97.318308672511
1.77,0.0830969004937196,0.143734167280115,97.3678968947227
1.772,0.0625489536577698,0.169432687721441,97.6127971774794
1.774,0.0133452306295626,0.202303904337965,97.2869661104696
1.776,0.00668082127917599,0.175457132429808,97.5253315700921
1.778,0.0599341607755473,0.177148453595494,97.3263487649215
1.78,0.0319022539655714,0.165650426277036,97.4216455998556
1.782,0.0598661705815696,0.225575091143315,97.8194290238064
1.784,0.000416135663210362,0.248114282730823,97.1717125760537
1.786,0.0970176759330151,0.185114070725763,97.1486938040282
1.788,0.0114144653365478,0.155537071911396,97.5965728495535
1.79,-0.0255962701021507,0.182498398006972,97.5281778730392
1.792,-0.0730074795298858,0.154206306633238,97.1940900610743
1.794,0.00977776101130936,0.066526540459988,97.4042190532824
1.796,-0.0857890839302978,0.175055760512593,97.2652146609778
1.798,0.0122225757713194,0.202793003766605,97.5095706030575
1.8,-0.000175607183439174,0.123202787641209,97.682891264861
1.802,0.0422353007554827,0.147923720765563,97.4036030956102
1.804,-0.0272647270807321,0.0694376303240875,97.0793225023854
1.806,-0.0794461171622062,0.133676344829118,97.1625247758995
1.808,-0.0223152033444724,0.131729223195847,97.5271017858077
1.81,-0.0992518851301485,0.282912232376095,97.1064296253201
1.812,-0.00492241990560703,0.224054417343742,97.7154034684796
1.814,-0.0625016704272905,0.208505660888171,97.0535658885713
1.816,0.0657558641334343,0.22132369059559,97.5979764971644
1.818,0.182007126011277,0.0362212161894852,97.7149223163803
1.82,0.378841979205774,0.20980128702024,97.6412754622529
1.822,0.718832677250614,0.140055258346277,97.385050364544
1.824,0.921212128820224,0.116654130118402,97.3948446414167
1.826,1.03668403318992,0.114652087699437,97.3621435992574
1.828,0.952481074451714,0.110276284890873,97.3859974656112
1.83,0.835504190467448,0.11990145759578,97.2246736396633
1.832,0.659708385799728,0.136331255771896,97.3738063748513
1.834,0.457323468971073,0.123101100660105,97.2520073904384
1.836,0.254967884830001,0.196553211811036,97.2792738988398
1.838,0.0721877519344455,0.167243087427242,97.2938958701892
1.84,-0.0134592692572875,0.15273322457759,97.5570335712436
1.842,-0.0480110460284337,0.113955540622186,97.2392466277017
1.844,-0.107757817362002,0.113293809473198,97.2314660686714
1.846,-0.140848212519731,0.0673540924229907,97.3803358661678
1.848,-0.066508522844592,0.108946803489651,97.5349544349285
1.85,-0.13332041417008,0.187272199621469,97.1956202100151
1.852,-0.0119396984259024,0.167169490862273,97.6327989725583
1.854,-0.0211164743464672,0.0686925059343101,97.6580405855125
1.856,-0.0316052079173986,0.0903472486250112,97.1811807063576
1.858,-0.0030602443970752,0.153292037287639,97.7262251353738
1.86,-0.121732975956226,0.0270073113418234,97.4701972021295
1.862,0.0193074634243401,0.0255637601110347,97.4417062059562
1.864,0.044998037918894,0.11637321009693,97.355631821524
1.866,-0.115636872814818,0.244412856593041,97.3586140974115
1.868,0.00420666181718938,0.105801379707748,97.1793670910286
1.87,-0.0686384721976128,0.0985632304472635,97.3916167541366
1.872,-0.0513589635505289,0.113590732538088,97.1316869594078
1.874,0.0272380163865169,0.0107540426330952,97.1057577465095
1.876,0.00479124538031053,0.115147171504255,97.4896861872481
1.878,-0.0363015955379307,0.0867425715769306,97.5291681974637
1.88,-0.0417681506444681,0.0590767155776354,96.9232089717797
1.882,-0.0129658658439537,0.0742134464810079,97.6576931406158
1.884,0.0191743864099937,0.0447085943604518,97.1514243315016
1.886,0.0407449667951846,0.0897683183150125,97.4432312417999
1.888,0.13992853421309,0.138638991243882,96.7680808287695
1.89,0.0316581461394185,0.0156050187139737,97.1473826225707
1.892,0.14415165188902,0.061650884204298,97.9545342161613
1.894,0.0673379776098327,0.167405703408625,97.117768258813
1.896,0.0109678157869565,0.154754944463572,97.2949834086621
1.898,0.00833759434652029,0.11809588375829,97.1823918572465
1.9,-0.0317623994567964,0.124814418934298,97.4184657698725
1.902,-0.0468907087702293,0.150025743142915,97.4109772440161
1.904,0.0030722095682377,0.10600720808044,97.1578557720225
1.906,-0.0276263239188482,0.13002290238191,97.565078823152
1.908,-0.0706446161601764,0.0100718466623986,97.3502383704519
1.91,0.0193243228841986,0.0516323814032653,97.2376437166402
1.912,-0.0232563241323964,0.0729293430872737,97.6210422354084
1.914,-0.0389931661110104,0.0496024750921205,97.3312860029518
1.916,-0.0453146496876261,-0.0250445476561963,97.6280230444511
1.918,-0.0476519254559061,-0.0496046799617434,97.5081692047338
1.92,-0.0564128638355157,0.11216768570926,97.4062276242859
1.922,0.0123911075316583,0.0450750464872973,97.3976929202413
1.924,0.00160234753865443,0.129445862745799,97.4762400456906
1.926,-0.107799639334678,0.0453710479154262,96.7127942859733
1.928,-0.0649570105015414,0.0578944742244821,97.2474472112604
1.93,0.000293761622759113,0.0345708903758964,97.8031886179909
1.932,0.0289784041131447,0.0705426236985932,97.6505055744182
1.934,0.00167660923045095,0.0639705196590011,97.407056465507
1.936,0.0068966236635185,0.086262956250013,97.2876265370119
1.938,0.0774703722599719,0.0640995996001924,97.3674092270182
1.94,0.0659706026843351,-0.0601377226970412,97.115892178812
1.942,0.0448793236881456,0.0527735155939824,97.3541493121857
1.944,-0.00471997786538289,0.0951165624417549,97.6227470346673
1.946,0.0205936007593669,-0.0254121721168028,96.8634879496719
1.948,0.0522503997312483,0.0977820400519714,96.9824838213267
1.95,0.0125675582529377,-0.0280533644362322,97.2197895562311
1.952,-0.073733292816254,-0.0117688154581688,97.3936673037915
1.954,0.0454964058091348,0.076663214382119,97.3887981102617
1.956,0.0577544851421363,0.0705169916027844,97.7278956250397
1.958,0.018348673928397,0.000352333362578214,97.8574353393139
1.96,0.118952176068237,0.0743637274580148,97.3260433214364
1.962,0.0934323492014061,0.0367950955383652,97.1861014009881
1.964,0.0655521084061837,0.0327247594813612,97.4456699150977
1.966,-0.0331206206866424,0.122001240781902,97.4187174249902
1.968,0.0215662426851641,0.0402762525839783,96.882481863797
1.97,0.078035034318553,0.0591315189088358,97.2985068792081
1.972,0.0919772387007027,-0.0223418940668431,97.2087190653733
1.974,0.0416598479734042,0.0515947032142668,97.4938569754331
1.976,0.173156597770919,-0.0463202060226983,97.3956236593424
1.978,0.0700118421736875,-0.0806415965686711,97.3584208491904
1.98,0.171966456838902,0.0251681012481789,97.1653663363939
1.982,0.117778025152117,-0.0157895890110483,97.587554721835
1.984,0.144117798568581,0.0310859865329343,97.466760991228
1.986,0.201718669950893,0.0151457420602004,97.3197848456164
1.988,0.306360331032503,0.0244856903017181,97.483188442647
1.99,0.121763500892512,0.0101167405993199,97.1590933882922
1.992,0.251034154040921,-0.0321740703814342,97.1944699551987
1.994,0.244824757070608,-0.10569530534731,97.2359862640786
1.996,0.237795742713355,0.019542180003456,97.2354115498325
1.998,0.232488057909566,0.0343041145928335,97.4927767061026
2,0.251990952559074,0.0208067029052885,97.6084913109725
2.002,0.208086344476631,0.0175473012672482,97.457213198322
2.004,0.315166704924182,-0.000658069747083303,97.3971654994027
2.006,0.232291129535899,-0.0311820982478056,97.1373900802795
2.008,0.192310969224332,-0.0337631699404939,97.2094712868402
2.01,0.327416728980218,-0.0356277603315791,96.9846047652854
2.012,0.285775275375382,-0.00874598599528668,97.6847298608963
2.014,0.315465483861568,-0.00777496737764985,97.2087172008737
2.016,0.33538431674194,0.0137330602705782,97.4508144870489
2.018,0.338650536627402,0.0299936632345775,97.5393799744196
2.02,0.207490906569582,0.063736385214414,97.112819477234
2.022,0.333022172633681,-0.0420176993098632,97.2416728858357
2.024,0.268909185177805,-0.0865439782593866,97.2011962382464
2.026,0.301572377987367,-0.0481999584810422,97.19621606378
2.028,0.250770666876951,-0.103867352938268,97.2291602902867
2.03,0.334020110776688,-0.0473155412688984,97.5820560129272
2.032,0.335613363412345,-0.0473204966127969,97.1457834392186
2.034,0.273722387001156,0.0557320370181696,97.3882884337848
2.036,0.206882015512318,0.0228212494714546,97.5257020244203
2.038,0.210449676962409,-0.00458528407993811,97.7668743495387
2.04,0.173703834052752,-0.0176698535319371,97.4782735766917
2.042,0.162806384002711,-0.00667234303558931,97.2414904810178
2.044,0.139595512309944,-0.0278236039042425,97.6130642681175
2.046,0.190876026997965,-0.123012374465273,97.3690482395408
2.048,0.157436787842527,-0.0814404520420562,97.4656997998785
2.05,0.123784512667789,-0.0961809716798531,97.2256860527766
2.052,0.155947301487667,-0.0238722861158613,97.2931897893712
2.054,0.13076995494666,-0.0291969343544759,97.0634978791621
2.056,0.115875256472655,-0.0313609238489882,97.3071892566535
2.058,0.0269761512391057,-0.0611468667704767,97.5037085854037
2.06,0.085587498231934,-0.065878416207735,97.8355412019524
2.062,0.083643916439032,-0.0662949660981184,97.3050204173468
2.064,0.0286518396488875,0.0211949832169,97.3842671577031
2.066,0.0546431704077887,-0.045116105787925,97.5303898757591
2.068,0.0854269075037968,-0.0652528369499473,97.5012302702106
2.07,0.0493767973793167,0.0219504349429908,97.4332047177314
2.072,0.0647354489878479,0.006390457951884,97.470415970516
2.074,-0.0122361716737639,0.037302575918704,97.3657488697768
2.076,0.0144678954530106,-0.0831565124396165,97.3788289776071
2.078,0.0620344317122059,-0.0811541527431239,97.0789133514556
2.08,-0.0148120880619408,-0.134329603584397,97.0987618954744
2.082,0.0476651773658969,0.0157364140165591,97.8831572089574
2.084,0.0585646463875821,-0.0617687623148075,97.167956606049
2.086,-0.00681973637526503,-0.0848168458440864,97.6713387010718
2.088,-0.0758074543888129,-0.179801895800879,97.6544945091816
2.09,0.0257114485865335,-0.101415358407268,97.2387715179642
2.092,-0.035102427242093,-0.121489835001731,97.5120539943729
2.094,0.0633376047254277,-0.0480280816645144,97.1382475183028
2.096,0.0196779139409658,-0.0435913278814668,97.264296000817
2.098,0.0394491794990497,-0.150076521192984,97.7202382193313
2.1,-0.0678654011459509,-0.184463949064775,97.4281214392565
2.102,-0.0105872711155422,-0.0677786155614201,97.446902116917
2.104,0.0430052592414842,-0.0268137077704142,97.2936247245078
2.106,0.0968034677249726,-0.0681335235916194,97.3818565707879
2.108,0.0319887032935318,-0.0958445757002178,97.5576898358869
2.11,-0.0837912741671847,-0.0818690119319976,97.5212811066105
2.112,-0.00249901943803995,-0.0777380334074552,97.6437594038049
2.114,0.0102579740145425,-0.151861718976019,97.6617441511728
2.116,0.00436462052278166,-0.124357777398955,97.0282139957376
2.118,-0.0851996143615736,-0.0622240067718923,97.1343409799864
2.12,0.0178166045402922,-0.0817699527454258,97.2579523802089
2.122,0.0391514790860212,-0.0212152586608215,96.8258979659054
2.124,-0.000532922042785868,-0.0115694692721972,97.3400419620146
2.126,-0.0177047755376036,-0.0424086247831595,97.4933876020258
2.128,-0.0634782852329688,-0.136708386029938,97.1438162582819
2.13,-0.030861733449589,-0.132007975702982,97.5292775112141
2.132,0.0321510815276064,-0.104794799848313,97.403532443538
2.134,0.0333293706456695,-0.141182686370804,97.3273191458325
2.136,0.00372916392852871,-0.0779881444934265,97.4195875590944
2.138,-0.0124320531080986,-0.208448645116201,97.3816028771358
2.14,0.0418100410005632,-0.162205875951441,97.5341338297586
2.142,0.0117592887114078,-0.119730132132149,97.4283788050568
2.144,0.0183668107897864,-0.159569544239963,97.6678133611791
2.146,-0.0844379565584896,-0.135913321796991,97.6550634108226
2.148,0.109814648074223,-0.140361519917363,97.3178183680519
2.15,-0.073350023088643,-0.124679205533947,97.3226619169913
2.152,0.0222655539077318,-0.0981952165235032,97.5271403770276
2.154,0.0503540493266682,-0.0329181293782568,97.2768751291471
2.156,-0.0163604951475952,-0.153371034907176,97.5403671803438
2.158,0.011980879538404,-0.149665719881313,97.6230575056058
2.16,0.105194863711484,-0.154164540500842,97.4018034998483
2.162,0.0586867289197427,-0.108156282767792,97.4164034181551
2.164,0.10168552046295,-0.144670076022217,97.1973947494674
2.166,-0.0314972236201585,-0.0822595797544857,97.5185877151428
2.168,0.0232853820609704,-0.0495418684604227,97.4570439989847
2.17,-0.0488905230006054,-0.0763308369607246,97.3766873072642
2.172,0.0133659190203677,-0.135289345430892,97.1245903671694
2.174,0.061697012588665,-0.0816382060976241,97.0678093831968
2.176,-0.00897790492784373,-0.105851416716221,97.7552875355116
2.178,-0.0477991040300051,-0.143306039967569,97.1833728431811
2.18,0.0896576977590059,-0.0916701840304801,97.5558348270615
2.182,-0.0520233826165611,-0.0352738164143047,97.4729512251334
2.184,-0.0205968806017375,-0.180256134897042,97.3477799995414
2.186,0.0911058334691266,-0.156489138438548,97.3100729733705
2.188,0.0770515643323003,-0.110162602126377,97.6056368335205
2.19,0.0444369502711093,-0.0971478614370101,97.1790413342918
2.192,-0.0248645090163003,-0.17453028108029,97.4749048092519
2.194,0.0433098285011588,-0.169019231144655,97.6893787160023
2.196,-0.00731119517768062,-0.163938773834639,97.6327829878981
2.198,-0.012589450274515,-0.145139470675873,97.6946034486
2.2,-0.0592198212820976,-0.136945315435441,97.0116996629654
2.202,-0.0318451844437705,-0.0859398240797375,97.1292497514387
2.204,-0.0192685985935617,-0.135198862648648,97.5396418233759
2.206,-0.021402933546458,-0.173789772342523,97.3524993597477
2.208,-0.0997341560119725,-0.205151307523946,97.8270497538219
2.21,-0.0225113790213048,-0.175323775561231,97.2982568513149
2.212,0.00246480003143468,-0.160136898055771,97.7045546392147
2.214,0.0686410459817388,-0.158262278118877,97.5679384808508
2.216,-0.0563130696445217,-0.192966693248218,97.2400148930269
2.218,0.0204880393827545,-0.106912905439439,97.3796325210984
2.22,-0.0727169394094448,-0.120221789817733,97.4931780740853
2.222,-0.0250979477753712,-0.194769507276481,97.8793781034424
2.224,0.0643624434205214,-0.186284219501079,97.4132433683325
2.226,0.0132528329334757,-0.191420198360874,97.5092846100528
2.228,0.0395486611424687,-0.191895261515469,97.342623299643
2.23,0.0776940449610007,-0.130923208805544,97.3677230133269
2.232,0.0104781686117574,-0.150809853204921,97.5301752266164
2.234,0.0582471773990008,-0.185833991139252,97.2875989884121
2.236,0.038404967494282,-0.19728187698271,97.6809958242641
2.238,-0.0049037342703566,-0.127538511792449,97.4436588054536
2.24,-0.102442161838784,-0.227561550238405,97.4603738199574
2.242,-0.0025086264419901,-0.0977613474664896,97.423093427322
2.244,-0.024190745230596,-0.220614720077527,97.4863733914382
2.246,0.0552838405687307,-0.120709252882955,97.4216951751407
2.248,0.0798873191297448,-0.11237650661897,97.9714998609489
2.25,-0.0737472865652084,-0.245622606772412,97.5660287954582
2.252,-0.00119133366525279,-0.213009054539083,97.6456374901868
2.254,-0.0195924848256607,-0.216018378145011,97.3883027329879
2.256,-0.00120596774796785,-0.0785760884862409,97.4191478327842
2.258,-0.120217416396841,-0.296898581907904,97.202465749161
2.26,-0.0297058217786248,-0.203441422922954,97.3348164952374
2.262,-0.0257733804159061,-0.18561780230726,97.3096395234558
2.264,-0.0100905732536791,-0.222768390511545,97.3350841638706
2.266,-0.0739020328387288,-0.170976555451888,97.4785891332208
2.268,0.0264349873845604,-0.182912391008209,97.45621074053
2.27,0.12087783594998,-0.226880035912409,97.2681251953312
2.272,0.0593731178640381,-0.263154814220331,97.4685867860384
2.274,-6.37529830888663e-05,-0.200697243209237,97.2391910633783
2.276,-0.0172608016782555,-0.117012682512946,97.4419695502263
2.278,0.0235611396017123,-0.25131767486161,97.632606687023
2.28,0.00443117169586936,-0.247197496167579,97.1665644586201
2.282,-0.04655061916047,-0.291059029846873,97.2527819913329
2.284,0.0161564602466546,-0.146918203784684,97.1813293087471
2.286,0.0247253590009118,-0.214488742310451,97.3854374085891
2.288,-0.0413508753441326,-0.161737445345889,97.5951802134797
2.29,0.0321099003976755,-0.155204479716451,97.2024742562176
2.292,-0.0122542385341804,-0.259291595922505,97.5877081437661
2.294,0.0458568795981575,-0.228999212848373,97.3429547104489
2.296,0.0108366134888101,-0.175809009648556,97.366115951801
2.298,0.115802871215537,-0.229228088556969,97.3001695048258
2.3,-0.0185137384661496,-0.245234363620647,97.0002858253742
2.302,0.0614092634567872,-0.168618449033766,97.5321703160203
2.304,-0.0348411406245129,-0.240958100507585,97.4006016195229
2.306,-0.00332303016740792,-0.250427798792252,97.5237869322635
2.308,0.0794818434482545,-0.288227180459883,97.3685562363247
2.31,0.0462064701386801,-0.248452394826906,97.3572737607919
2.312,0.0486279959723725,-0.139025779174453,97.7448793723496
2.314,0.0429796519283755,-0.305025528964676,97.5394535504653
2.316,0.0121316213366317,-0.216173028378985,97.3776830371139
2.318,0.0637682261817989,-0.246362809686747,97.698845458322
2.32,-0.0269763917496307,-0.29943770075774,97.3216237174101
2.322,0.0749111072340419,-0.345759967482405,97.5247557926674
2.324,0.00748967954272203,-0.344147207016198,97.1827864135929
2.326,0.110722541420421,-0.24976770129188,97.279567182395
2.328,0.0446130524323412,-0.219114992747057,97.1955658857138
2.33,-0.026857641567717,-0.249053779043948,97.7215362568826
2.332,0.126638062937683,-0.0845937301555041,97.4082650052515
2.334,-0.0455673648793315,-0.246019653069528,97.5886440043598
2.336,-0.0159435015062772,-0.233381952583845,97.204966264361
2.338,0.139772475161821,-0.303567490537043,97.6389146029928
2.34,-0.0152577496968936,-0.290953845126595,97.5037242752355
2.342,-0.0230207238691685,-0.188978219135351,97.3238830422002
2.344,0.0416911817013428,-0.28533291555332,97.2192561560636
2.346,-0.0174845220833036,-0.175613629506784,97.2218142506582
2.348,0.00597170491976389,-0.194924615159252,97.703936636152
2.35,-0.0479923598396096,-0.312846101411525,97.6399361902393
2.352,0.000103034336935271,-0.264355996961644,97.3843875573707
2.354,0.00220949846276798,-0.340092162799224,97.3625824583762
2.356,0.0365372296441609,-0.240452516771291,97.4680728276601
2.358,-0.00929001306650381,-0.241503147035779,97.7532535941641
2.36,0.0452620963142148,-0.246585926892489,97.7672989352127
2.362,-0.00560949159059375,-0.230020138138144,97.5922320880342
2.364,-0.0323915190762932,-0.253702422112223,97.519618714109
2.366,0.0477443621771288,-0.291891361681926,97.5782071314349
2.368,0.00945819227679164,-0.218961309440123,97.2384994390195
2.37,0.0507194066282317,-0.2863845724656,97.5000738446745
2.372,0.0191519392840233,-0.266560894227577,97.3480799225623
2.374,0.038282611573886,-0.360363368396318,97.1815464011174
2.376,0.0077359714644741,-0.279883789746409,97.4341187551854
2.378,0.113680013156773,-0.270936247981555,97.1344210706881
2.38,0.00104053112745844,-0.273827818404072,97.4172302436471
2.382,0.00152523175426553,-0.248446475511265,97.7634889703856
2.384,0.00236107623358186,-0.305091317069932,97.5946101224062
2.386,0.0426323872595324,-0.392476574721442,96.8702375466984
2.388,-0.00369441187525182,-0.295890782782582,97.3282891437165
2.39,-0.0585032281610924,-0.308595067500541,97.4153912724389
2.392,0.0182660591169953,-0.223007499267352,97.3673423026396
2.394,0.0686716697244451,-0.335163319223193,97.1233882147513
2.396,-0.0478185060981806,-0.293445903885384,97.0827305922376
2.398,-0.0522150536038341,-0.405528031848776,97.3962301782318
2.4,-0.0082646086089671,-0.371923949285495,97.5109113632322
2.402,-0.0233519408440159,-0.219626481729812,97.6874036000196
2.404,0.0412432764977554,-0.332197117635948,97.4413458479577
2.406,0.0247272016606301,-0.408679539594592,97.6764238108323
2.408,-0.0061416912938536,-0.321965028254019,97.247755539292
2.41,0.043061109700926,-0.342141784913369,97.2745297923862
2.412,0.114938343216431,-0.32574930664101,97.2593218888251
2.414,0.0385440860239894,-0.304678726800388,97.6872855373059
2.416,0.042533301542282,-0.298996281219386,97.3252373631893
2.418,0.113521718700159,-0.272832848048517,97.2724432425352
2.42,0.0324772391388385,-0.378802957815593,97.4331039661665
2.422,0.0500467973310792,-0.327497594488838,97.5319311779259
2.424,-0.00196118206684488,-0.237158365137289,97.3636417209725
2.426,0.0503727546365844,-0.30509633792936,97.2462517311928
2.428,0.0169566055891659,-0.363105304356932,97.0883810871231
2.43,0.000948537788057981,-0.270412181163054,97.3253653406011
2.432,0.0590188158947539,-0.304096641529125,97.1928818414818
2.434,-0.031655630019771,-0.314158584497559,97.5727376386393
2.436,-0.0240354883103357,-0.332352985418199,97.3270364535341
2.438,0.0084832179314376,-0.364663602257334,97.3664507747556
2.44,0.0337773970514224,-0.30043506113771,97.5376115622452
2.442,0.0245108414101337,-0.33780963131015,97.0414395983647
2.444,-0.0301887899544343,-0.311774777087223,97.232650507018
2.446,0.0115287799680316,-0.367028722059624,97.7452766043211
2.448,-0.00301544417263823,-0.32439077035654,97.4815897563036
2.45,-0.0672487532944832,-0.369152612931363,97.3400835812088
2.452,-0.0520573026157661,-0.399704656420257,97.3114130861912
2.454,0.00493734435815048,-0.325785329575744,97.5147532260608
2.456,0.0491419551997823,-0.194152781963829,97.5203864978401
2.458,0.034568823724831,-0.357487946654689,97.3630635671869
2.46,0.0363475516262296,-0.262198746091843,97.5563061427043
2.462,0.0472031781788808,-0.34203853081279,97.2187869822464
2.464,-0.0095384690693057,-0.353702253519523,97.3281695234925
2.466,-0.0463233439701913,-0.32184240234064,97.1518032084164
2.468,0.00643979831731694,-0.212600542660907,97.3625988502544
2.47,-0.0193470045003847,-0.393505284278539,97.5417864715052
2.472,-0.0689404885587473,-0.303582065355879,97.4030332511154
2.474,0.0537655877013464,-0.361722975971979,97.7045859593998
2.476,0.014648103255443,-0.313384709482042,97.5002037943087
2.478,0.041879705553788,-0.297948278676281,97.4062794725151
2.48,0.00048504151604871,-0.331332608567221,97.5340603948513
2.482,-0.0660941138842308,-0.352635433435922,97.6929645376932
2.484,-0.0420432890005845,-0.334946547423498,97.4407073983982
2.486,0.0270523202476503,-0.387298463642734,97.3528423901085
2.488,0.0494603284146107,-0.372437765902578,97.4335251891619
2.49,0.0249814969277956,-0.349819735653785,97.4192905252775
2.492,0.122714177566487,-0.320474530627402,97.3571119537235
2.494,0.103868620870147,-0.321052364520378,97.4800908610872
2.496,-0.0464342530794489,-0.384641018653342,97.3901385542192
2.498,-0.0609480024525201,-0.402539308703515,97.6479131430162
2.5,0.0194124201266524,-0.366953889175755,97.3627249348821
2.502,0.069560056191863,-0.392691411390651,97.2190921226109
2.504,0.0136274678684442,-0.327829128864949,97.3504631200675
2.506,0.0431152014582397,-0.317766082808907,97.2320316991622
2.508,0.0583799215459854,-0.334344478383513,97.5879667794845
2.51,-0.0635457866949244,-0.372709054844846,97.4306159997083
2.512,-0.00190245889401568,-0.33959913118299,97.3079997733408
2.514,-0.041502862758018,-0.394502600385965,97.7909941950814
2.516,-0.0223856378724513,-0.382298559723927,97.1195737570075
2.518,-0.0813975471374069,-0.368939655267677,97.3259248542236
2.52,0.0390309893780282,-0.284242427207558,97.4206084666157
2.522,0.0220295986204019,-0.29446962245632,97.2381825361927
2.524,0.0485996061925602,-0.416051436699518,97.6240703606782
2.526,0.011725984385278,-0.330542262493493,97.2804355748364
2.528,-0.0922361225141838,-0.360531058687236,97.7301683520312
2.53,-0.0153178867822643,-0.406546092950233,97.4160386623148
2.532,0.0142061753343062,-0.412920552859207,97.3724318762233
2.534,-0.0080544835562317,-0.38601361949812,97.2045180029321
2.536,0.12648093792978,-0.404833742325331,97.5983033635595
2.538,-0.0361443452136191,-0.37552389646399,97.3864543589842
2.54,0.0378396895497562,-0.298230593129394,97.6256610605591
2.542,0.0674032855467792,-0.357099038623159,97.7021948567263
2.544,0.0658819848954593,-0.335408866550996,97.4366634893679
2.546,0.042345934655521,-0.423883939974891,97.6684868326953
2.548,0.155825678632678,-0.400912975418255,97.3593321923443
2.55,0.124894059033703,-0.324929385785608,97.24520205437
2.552,0.0586046804428241,-0.431103902257469,97.4311959086886
2.554,0.191672987083298,-0.387179666254904,97.2627282638695
2.556,0.0784941260116654,-0.476814668518793,97.7631114217711
2.558,0.174619548186347,-0.372568552984842,97.6953171826628
2.56,0.19385018804488,-0.492762279067128,97.3385729239832
2.562,0.162042983094055,-0.438016402763516,97.7013498654401
2.564,0.146619680948045,-0.381093238786621,97.8010849640005
2.566,0.122935098977265,-0.424770501370267,97.7492530843543
2.568,0.135028732655383,-0.445103893683555,97.6303776158732
2.57,0.152385514280564,-0.487204895261458,97.4842136284614
2.572,0.0484600351064928,-0.35029467450501,97.49725371895
2.574,0.104102054272288,-0.305683171466201,97.5332348543523
2.576,0.0888899910168135,-0.363802407375988,97.3328424008341
2.578,-0.0284045781610101,-0.464729329025197,97.6280355950146
2.58,0.111880661746326,-0.429241150281765,97.2431645395085
2.582,0.0582709654555485,-0.417247928697638,97.2142153456671
2.584,0.0765283017662992,-0.323055617265947,97.3213194769371
2.586,-0.0591678761258015,-0.407881007986923,97.4685610258368
2.588,-0.00550872166663836,-0.381897563307214,97.3649138111143
2.59,0.0957658875156833,-0.469862580891471,97.476985806562
2.592,0.0734570337105469,-0.392459935846263,97.306345823897
2.594,0.0644640826141856,-0.407303097159277,97.4821191132619
2.596,-0.0515798117746354,-0.453891521227294,97.7452433838827
2.598,-0.00522627272823163,-0.446617803933872,97.4619609098207
2.6,0.123059680912536,-0.408174367774529,97.4886703520027
2.602,0.0311951836855278,-0.442266547007915,97.8535876092918
2.604,-0.00373958123633357,-0.424304892927155,97.248813061653
2.606,-0.0388081624047275,-0.366312426142023,97.5512014651646
2.608,0.00109764393208097,-0.410616865721836,97.1987018782971
2.61,0.0690928357495873,-0.370648286475871,97.4912879182599
2.612,0.0046920544532589,-0.417998650676473,97.5966295445706
2.614,-0.0237871955879617,-0.461335575488225,97.2829761315151
2.616,0.0551805931693806,-0.348654599091145,97.3493689229645
2.618,-0.0619847953036138,-0.379180733002088,97.0804477402214
2.62,-0.0128292083691514,-0.407539300742002,97.0925664934795
2.622,0.115542403368077,-0.379507867064187,97.4604894404256
2.624,-0.0341387903172711,-0.401510733261572,97.5044678899453
2.626,-0.0658747809492747,-0.469049068167792,97.5712538923903
2.628,-0.061382506847172,-0.472332911003721,97.7484128970285
2.63,0.119694832880948,-0.401899166969859,97.7345947727041
2.632,0.0840123695545845,-0.454335749101602,97.6818568578797
2.634,0.0343013690634388,-0.412074114148607,97.1657682281009
2.636,0.0183465363339332,-0.488597581355792,97.6226537355087
2.638,0.0504324649297436,-0.440908708479853,97.1950780560424
2.64,0.0213672911363923,-0.467333997755577,97.7464979173138
2.642,-0.0026682080976269,-0.499535231737783,97.7570738688863
2.644,0.0518364642557947,-0.429027132997577,97.324962557103
2.646,0.0054305822455527,-0.364755884467286,97.6782382704242
2.648,0.0228568815921395,-0.334333689884335,97.661570092675
2.65,0.126149637605426,-0.400667564652157,97.3609040487838
2.652,0.266070014742577,-0.363545090031916,97.6387912949516
2.654,0.424516035313995,-0.402440341179901,97.6369955610788
2.656,0.81052711127689,-0.445314964199751,97.3134014562208
2.658,0.933192325394474,-0.373116793164536,97.5414964909106
2.66,0.992263390070168,-0.49514257848588,97.6130168529338
2.662,1.02878355459995,-0.415193183963382,97.2298325633579
2.664,0.840933022813327,-0.453865666843391,97.5731476092986
2.666,0.512995373626205,-0.378605293846609,97.4952980844244
2.668,0.351739202354592,-0.4103736303927,97.4016568805101
2.67,0.24094527081527,-0.404766022300035,97.237259709686
2.672,0.094830303695375,-0.413855374706535,97.1929105381863
2.674,0.026883241203798,-0.442239280952752,97.4478890515978
2.676,-0.165736565675955,-0.551544190398908,97.5802856721546
2.678,-0.101517879162636,-0.468096487759485,97.5265622831308
2.68,-0.220907296462876,-0.37454237340442,97.7692663479979
2.682,-0.204799824758677,-0.370503249611951,97.3218810151997
2.684,-0.127434901630897,-0.412852622831773,97.2594116277679
2.686,-0.025372874087948,-0.356124464724369,97.8282496481036
2.688,-0.0193615904330783,-0.459879796063923,97.7381384340846
2.69,-0.0914552944282659,-0.500379971191559,97.2576509164194
2.692,-0.0189878872388399,-0.497208981812571,97.5523581752392
2.694,-0.046487831854042,-0.478791986198953,97.6862333831089
2.696,0.0283827724636262,-0.532142846144145,97.6439720086102
2.698,-0.0592476450374907,-0.444579611793739,97.4928143461682
2.7,-0.0111869785654962,-0.430952841801145,97.1852123093601
2.702,0.021789918390911,-0.430800475885308,97.5217107997091
2.704,-0.00902121255144497,-0.506108153932834,97.6740929136326
2.706,0.0316020357610522,-0.4868781984563,97.7739340855005
2.708,-0.017915043750219,-0.503187078997883,97.5852971425563
2.71,-0.0223282935169256,-0.470461028524349,97.4605035031342
2.712,-0.0329256511507569,-0.474110338795145,97.6584650150354
2.714,0.00894463306545094,-0.387087129246898,97.4971212770282
2.716,0.0798746109254999,-0.368282292248038,97.1179055443035
2.718,-0.0126204490489835,-0.445770106111956,97.3673045787119
2.72,-0.0534514614212857,-0.434705224174074,97.2332333372727
2.722,-0.0434405501086099,-0.409198907603957,97.0832589802196
2.724,-0.0263070204728879,-0.404222449581113,97.6540067344845
2.726,0.0571685646338336,-0.46580888640325,97.3413909170893
2.728,-0.0205293111532495,-0.397025908659651,97.6369360109563
2.73,0.0688088704587124,-0.413514558549447,97.4016587345
2.732,-0.0263245286692668,-0.445764754307628,97.5803404491935
2.734,0.0443092509743674,-0.425639703992288,97.4879935854968
2.736,-0.0411495293792066,-0.454438994957568,97.6963732164713
2.738,0.028896392393296,-0.423344914341995,97.4514633828538
2.74,0.0178511074004906,-0.543088840283096,97.6356780087729
2.742,0.00186114544152515,-0.513220355363817,97.5455648677447
2.744,0.0699820381889992,-0.512720465923665,97.3383246692396
2.746,0.0235956258872064,-0.471451307079088,97.3677983953113
2.748,0.0884015384387036,-0.491140373530385,97.1601838216634
2.75,0.039465007141129,-0.44037512600315,97.3465340368923
2.752,0.0479605302087489,-0.515405188529874,97.4377519753433
2.754,0.0145380987968631,-0.333305059743022,97.5582353500856
2.756,0.0115895962735848,-0.49415696598821,97.4763210182166
2.758,-0.0255326478623582,-0.486219709582426,97.3264903720488
2.76,-0.018589178143555,-0.498965063745433,97.6544498044001
2.762,-0.017062760167981,-0.445818422039827,97.2635917097382
2.764,-0.108028989182441,-0.367741770253651,97.6055520682021
2.766,0.00963392309517462,-0.439742829722693,97.2290269335619
2.768,0.101748902740878,-0.553938252896308,97.3993531308191
2.77,-0.0957601556228822,-0.53234203439923,97.4404023010561
2.772,-0.0365725884174694,-0.449949839254313,97.6720924490517
2.774,0.0614349427785985,-0.54222846181434,97.5092095986408
2.776,0.0215611665184999,-0.511190820549035,97.485507348782
2.778,-0.0585479263443725,-0.506165146094072,97.3646431511626
2.78,0.0153658782635044,-0.366809197231408,97.0919045260896
2.782,-0.0210759717360933,-0.445636035636994,97.3486160957649
2.784,0.0573213264979018,-0.501555644692335,97.4196177446741
2.786,0.0426645184537472,-0.400021573890722,97.5811811433072
2.788,0.029066145750354,-0.459022425239322,97.6773038539649
2.79,0.0968464175531355,-0.477310077967183,97.2194605438496
2.792,0.0389875831525145,-0.470650025578728,97.198190588206
2.794,0.0319869423781956,-0.515324629847127,97.8174018255204
2.796,0.0938753589954614,-0.445966391065992,97.5756090503492
2.798,0.0506394274556821,-0.475880255873061,97.6645457391154
2.8,0.124040247493484,-0.461482168101137,97.3506088942597
2.802,0.146377046994649,-0.443827416777279,97.5587389360666
2.804,0.0480589320411626,-0.453355642193554,97.5661595674713
2.806,0.0862091334835995,-0.487857666445962,97.3513033767891
2.808,0.133497002853601,-0.545698372882504,97.5874635563948
2.81,0.0432444169238134,-0.601293223266219,97.4899464599753
2.812,0.0669790514745408,-0.460152242048762,97.4365100331355
2.814,0.0411961343516245,-0.38885054862621,97.5112575374943
2.816,0.0973364476361811,-0.462482600971263,97.5616611058551
2.818,0.129896651794006,-0.477695308519552,97.2694556600672
2.82,0.161047850067082,-0.536389454237907,97.2742297778966
2.822,0.232584796858176,-0.492856400093472,97.3767631495698
2.824,0.180868499884016,-0.476039804099317,97.5752784816271
2.826,0.266919244081888,-0.544817745957114,97.6598823373637
2.828,0.220625142920896,-0.496465512449117,97.6219597448337
2.83,0.188539446220228,-0.437084099917257,97.5675691306718
2.832,0.224245151052617,-0.540685549221323,97.7442127362957
2.834,0.279109784687498,-0.487655722038568,97.8557879064976
2.836,0.225213503020036,-0.565757539646954,97.7139847487004
2.838,0.256419002544501,-0.553511530195775,97.6068519357342
2.84,0.264552447591667,-0.513914282860177,97.2702613354288
2.842,0.310721470362757,-0.434247525401388,97.698319188013
2.844,0.348097983518889,-0.517823908880607,97.7519420430576
2.846,0.204272429426428,-0.497350763696483,97.3298348055272
2.848,0.308670823212192,-0.453475368028011,97.5700692110249
2.85,0.403569363980638,-0.395448726406267,97.4528584626189
2.852,0.202782141942451,-0.536320277302271,97.36952379995
2.854,0.23060435794538,-0.388867095201253,97.4785811221112
2.856,0.325440251739629,-0.457639589632213,97.5762459672597
2.858,0.344126089895376,-0.486359305733355,97.9900162505874
2.86,0.31606599170992,-0.555448119862261,97.6647478275737
2.862,0.160842600770496,-0.454476322972412,97.5221046069937
2.864,0.269447668251167,-0.520488421308296,97.573397742379
2.866,0.270829722077039,-0.463234790504364,97.4483160797551
2.868,0.193529121471382,-0.495016757025659,97.5252845305001
2.87,0.271051168398156,-0.551666951257395,97.6556546361974
2.872,0.260177684625809,-0.481790413243107,97.1507500978821
2.874,0.229307147828707,-0.502734886502516,97.7420708453284
2.876,0.245300138253557,-0.455449510557423,97.7321248268312
2.878,0.203920300507176,-0.494386765271479,97.143434773374
2.88,0.19897807414397,-0.486116494948055,97.4678507922255
2.882,0.0939322515501526,-0.482229011966955,97.2563910107377
2.884,0.110442738602417,-0.468259885481109,97.66975678231
2.886,0.053354343193471,-0.517943776417955,97.5443107211115
2.888,0.129266093886369,-0.493262674302886,97.4640453575808
2.89,0.0590236622613013,-0.448622220207401,97.7399757865088
2.892,0.0339389871582618,-0.512348895944055,97.6053106172072
2.894,0.106891537168709,-0.582563522001851,97.401800376953
2.896,0.146523529582108,-0.513103167217138,97.9169798070834
2.898,0.113495276106889,-0.495841524238633,97.5963917575167
2.9,0.151734215927788,-0.469061681920667,97.6486260844749
2.902,0.102010054507052,-0.560441804965756,97.583697036303
2.904,0.0589001506654308,-0.449786606738502,97.5173007392406
2.906,0.101023759280753,-0.486830766058204,97.2967964422467
2.908,0.0498773952495464,-0.468382627169963,97.5927205869118
2.91,0.0164060178569602,-0.489157916811872,97.5982929495727
2.912,0.0852370400115371,-0.508991357560829,97.8310889967127
2.914,0.0763248274992332,-0.476824424274111,97.4313443844911
2.916,0.00926840077127214,-0.543282249116403,97.7643347795076
2.918,0.110725091811176,-0.55363464329757,97.2756613592949
2.92,0.0284126007410692,-0.501592907843906,97.8393341682704
2.922,-0.0215615223296652,-0.544623259508267,97.4358351992982
2.924,-0.00152126265048596,-0.465441322712777,97.406183731346
2.926,0.0546547292748479,-0.551110782278101,97.4039577400794
2.928,-0.0608750392923373,-0.514237613459557,97.5147996255219
2.93,0.0762255324270503,-0.53321996181346,97.6213464440425
2.932,-0.0181147225338996,-0.440362241393475,97.5747378944677
2.934,-0.0652813851676652,-0.503186579148552,97.6033728446669
2.936,0.0673608447550361,-0.495358088330209,97.4748928641427
2.938,0.0462879637417559,-0.517561319919821,97.315571488301
2.94,0.0243303957125379,-0.527545898833579,97.5784875740446
2.942,0.0410817964921155,-0.588483025869296,97.6920140787936
2.944,0.113114938298874,-0.649087726071731,97.8228784392607
2.946,0.00790345905505496,-0.467832469529263,97.5365503287821
2.948,0.0236587235380905,-0.42940230157254,97.4619880908527
2.95,-0.020771295730787,-0.494725292497393,97.6940222303178
2.952,-0.00634565102727236,-0.494845923596362,97.3683052059117
2.954,-0.0351514663453967,-0.491666409566176,97.741791012451
2.956,0.0059688263835921,-0.634761050459309,97.706909675144
2.958,0.0226470938086424,-0.540575775093541,97.4651832139091
2.96,0.0483924057804425,-0.496691513983979,97.6200533140713
2.962,0.017913308625115,-0.565498630281186,97.4644768963976
2.964,0.0129481177220667,-0.563694844705855,97.5701122104471
2.966,0.0237172868359188,-0.521217878665684,97.6123192186048
2.968,0.0249255815429578,-0.416156735254882,97.4988952936121
2.97,-0.0654309293922908,-0.474539051115225,97.3710489504964
2.972,-0.0077203292974745,-0.471409863802982,97.1945565924732
2.974,0.0229398067208839,-0.485382282826645,97.5802126632074
2.976,-0.0418535708069134,-0.410427717396182,97.7347203970576
2.978,0.00353030718710135,-0.544798788511293,97.466872242932
2.98,-0.00463064200372644,-0.446169489301401,97.8040722982785
2.982,0.0176733755225267,-0.497381873804277,97.6491132201769
2.984,-0.0487103462203173,-0.505304121840548,97.640173155304
2.986,-0.0303214894869101,-0.531799757411872,97.6081336435904
2.988,-0.051695963423375,-0.443366510904175,97.4708783360694
2.99,-0.0721397286208014,-0.466755078757622,97.3629206376962
2.992,0.0105775105839514,-0.426776678925147,97.5530507924442
2.994,-0.0487626952414616,-0.475021568201827,97.5816047084897
2.996,-0.0148475793074558,-0.48703623439168,97.4532675536628
2.998,0.0815699028213057,-0.520984947310512,97.4002860291682
3,-0.012645496557007,-0.367581595568028,97.2656897057088
3.002,-0.00904017048461327,-0.529650788592721,97.3298221423523
3.004,0.0184054603763308,-0.533382812063931,97.9604524318363
3.006,-0.0536150450617575,-0.493920518842876,97.7162972359331
3.008,0.0615987262879233,-0.414863774829203,97.7251683533952
3.01,0.0155211599701916,-0.576210950221436,97.5809558352032
3.012,0.0751802171562159,-0.511108300987293,97.4796210610258
3.014,0.0259975574943579,-0.533847412450155,97.5183845928883
3.016,-0.0324215121946591,-0.551105703475622,97.543871358454
3.018,0.0808710587084635,-0.517106909716262,97.6864511543118
3.02,-0.142870614982565,-0.56523233101469,97.2332430768154
3.022,0.00906427526722203,-0.481245280348944,97.9073174065547
3.024,0.00664287222992723,-0.528467960945775,97.6654366295594
3.026,0.00822481234835537,-0.480331848230629,97.636023012442
3.028,0.0221390071470961,-0.546355876123016,97.3956867066564
3.03,-0.0103856770801364,-0.448648494181769,97.6095521171879
3.032,0.0461366117343273,-0.586039485885125,97.5809213582733
3.034,0.034949154976705,-0.381821463905187,97.2857614642903
3.036,-0.00729564467768581,-0.523476748722307,97.7034038573743
3.038,0.00226058711191581,-0.561364876601854,97.504230133851
3.04,0.0299183745876796,-0.503003990387301,97.3490787117967
3.042,0.00267572433905389,-0.475686083450147,97.7748869422629
3.044,-0.0712075501742454,-0.442071030509883,97.3068490587208
3.046,-0.0533575351668373,-0.47916678459346,97.3088190515957
3.048,-0.0966275478692316,-0.591235897382098,97.5558509530906
3.05,-0.0312573044521299,-0.462434749262592,97.5531295397528
3.052,-0.0400007860390834,-0.476922128621314,97.4035700055226
3.054,-0.0504563334563764,-0.536860165238787,97.5331607589896
3.056,0.129569939343224,-0.568683331265453,97.5599532073285
3.058,0.0396893325285148,-0.372629488336325,97.3743093535501
3.06,-0.0676601836747613,-0.498592407096964,97.7021052593587
3.062,-0.032873087027936,-0.442860060868686,97.4745950633092
3.064,0.106142890490018,-0.503632494713437,97.4605956986354
3.066,0.0123113226915826,-0.511207191571874,97.8140858762835
3.068,0.00227293677878082,-0.432567521708118,97.7269046972023
3.07,0.00392472710803629,-0.461587388868033,98.1088022922705
3.072,0.0341444921390202,-0.564772069520126,97.3692154958832
3.074,0.0742251381873933,-0.512538939318388,97.6615565329783
3.076,0.0317869869510046,-0.503806489697665,97.6920446481767
3.078,0.00238358115938568,-0.47255543692703,97.296695429145
3.08,0.0568035541250419,-0.55705647172608,97.7207581574835
3.082,-0.0139032277821527,-0.546479298625009,97.4133239980689
3.084,0.0685574734727238,-0.487944398736939,97.3454544792746
3.086,-0.0152729300427681,-0.45952469654413,97.3256974979876
3.088,-0.105709206595156,-0.442031347373312,97.5463454633145
3.09,-0.041827032684671,-0.428487114786172,97.6606232416038
3.092,0.0209564503514348,-0.507406083406636,97.7785950192404
3.094,-0.0260823810627282,-0.454384761407429,97.5056891788448
3.096,0.0329827404426485,-0.4558154393696,97.98951635179
3.098,0.00241634084551486,-0.574365637131225,97.5985661522786
3.1,0.111637013759692,-0.510520225794361,97.664768056775
3.102,-0.011003222003123,-0.468306398267142,97.4422165764164
3.104,0.03142614514588,-0.586664337716805,97.5286990424898
3.106,-0.0182662524195586,-0.561539506943126,97.5938897414265
3.108,-0.06211433101362,-0.43949887940684,97.8902718512451
3.11,0.072118886111844,-0.51462887282997,97.5077928552963
3.112,-0.0830623944763023,-0.447234435707109,97.9175969725388
3.114,0.0552708476108277,-0.521023225744634,98.0460177582703
3.116,0.0628319644740102,-0.440904017484234,97.6070254033574
3.118,-0.0354383662988122,-0.535498991461015,97.4211037381342
3.12,-0.0440844281088022,-0.450109833945322,97.9254089223729
3.122,0.00730589200802761,-0.55777512808324,97.621954964235
3.124,-0.01144228130124,-0.439311115788911,97.4476532977132
3.126,0.0474837009092761,-0.445716551798881,97.4118244805657
3.128,0.0666766508421741,-0.399559858503821,97.6008380195715
3.13,0.00225846945044471,-0.513518962078275,97.7016196033288
3.132,-0.0378972159767365,-0.52198961475798,97.8042659551911
3.134,0.0633832540070535,-0.566528499411216,97.721661349184
3.136,-0.0103024422344399,-0.486070075798615,97.1599257535868
3.138,0.0197960615731397,-0.457187831852572,97.5238516244605
3.14,-0.0229443109689877,-0.520877087556456,97.7632431947603
3.142,0.06770897166786,-0.475042451282475,97.6829650646036
3.144,0.0351131183297689,-0.421081840441129,97.4340807641365
3.146,0.0255230269338322,-0.507544525999622,97.7331664235611
3.148,-0.0100119986423239,-0.528185306774061,97.6668389456006
3.15,0.0582415910068555,-0.442214336696117,97.6445602875966
3.152,0.0362049008493976,-0.466897075637696,97.7167090777111
3.154,-0.054689401961825,-0.541236550950448,97.1260637031162
3.156,0.0337087563981754,-0.495417465781282,97.8429111180568
3.158,0.0506658925171999,-0.538989930785948,97.405868474779
3.16,0.0601935907244487,-0.467357022532123,97.684111847295
3.162,0.0163625841650303,-0.375054320023601,97.7575626681975
3.164,0.015512874542999,-0.515332858205996,97.2418206900353
3.166,0.0327772555682876,-0.479914826764288,97.6441297630964
3.168,-0.0600435638247095,-0.482259352047368,97.1332304992656
3.17,-0.0154819276116144,-0.582263684562179,97.2110183751367
3.172,0.068042922361092,-0.518163486394556,97.464146618575
3.174,0.0319129899073085,-0.48903302707743,97.6363610379364
3.176,0.00487390189886982,-0.474109983660887,97.3984641668756
3.178,-0.0530101966749244,-0.500930847471609,97.402365743702
3.18,0.0377614767202061,-0.478000987816516,97.5672223103303
3.182,-0.0988513263147274,-0.519040584722971,97.5382861401249
3.184,-0.0999829581313114,-0.496034715555551,97.3749344735941
3.186,0.0215045989208752,-0.45230324515742,97.823326621229
3.188,0.043220083553827,-0.519481296401678,97.4346762817403
3.19,0.0181482009911436,-0.453529079856348,97.5101083065345
3.192,0.0718172969051404,-0.528888377622996,97.4811525148744
3.194,-0.00905409684035525,-0.439238571637592,97.5733783425401
3.196,0.0151212229625159,-0.454214218636991,97.6912640799576
3.198,0.0242225126406372,-0.5035622486023,97.5122255900438
3.2,0.0461785969543698,-0.54195775522843,97.801709468663
3.202,0.0782980976258116,-0.566726300185059,97.6418052409533
3.204,0.0099060749161799,-0.497060100383328,97.4248933176186
3.206,-0.05336563892398,-0.451988150850501,97.5848221291596
3.208,-0.0680203852839936,-0.405085013998232,97.80967960007
3.21,0.113603932274083,-0.500203796070556,97.8518347567321
3.212,0.0470260081132232,-0.47388019004479,97.4572578800442
3.214,0.02415493175995,-0.45116030903643,97.6583306475585
3.216,-0.0269268434123049,-0.518306954439262,97.5010106870934
3.218,0.042456276256076,-0.513200254327737,97.8317470309323
3.22,-0.0214796219131123,-0.525552008437269,97.5897449362473
3.222,0.175194542876835,-0.421210743232167,97.369213042806
3.224,0.00383929482735896,-0.412963153089426,97.4762200537495
3.226,-0.00968248365918593,-0.515817367765135,97.5555596464508
3.228,0.0249993924389332,-0.444871562803482,97.581956533539
3.23,0.0625803300431456,-0.492469547770411,97.7553538360971
3.232,0.0315082897121704,-0.453155316873577,97.7148007835051
3.234,-0.05955799404384,-0.508745711877062,97.65177868664
3.236,-0.0717819963479401,-0.416338015685125,97.4000545184855
3.238,0.0667623781974504,-0.445245511482924,97.6724423357984
3.24,0.0359724726150067,-0.481590719468156,97.5040830773243
3.242,-0.00127255968724336,-0.460133380622922,97.2645920199881
3.244,-0.0414102609698833,-0.473711890330339,97.8581591546826
3.246,-0.0122295706060098,-0.48617429658416,97.7392718776333
3.248,-0.0374936125311637,-0.49675136613899,97.6963127506575
3.25,0.0544618477312708,-0.417258809044076,97.6795493800904
3.252,-0.0239682904199588,-0.450524688572605,97.4395445316258
3.254,-0.0444394718667897,-0.451879709893765,97.5163506772508
3.256,-0.0323471793465792,-0.44424905015627,97.8031366053518
3.258,-0.0225486815198509,-0.49409691543105,97.6113915827877
3.26,0.0550445094704591,-0.528893124260134,97.5040949417813
3.262,0.0129539300762028,-0.401561587221356,97.7545627801813
3.264,-0.0340563193766686,-0.409841543380025,97.6691751773514
3.266,-0.0138450902461675,-0.406217926188861,97.2091789091742
3.268,0.0306937251545358,-0.509580579700545,97.6989784824041
3.27,-0.01737274384705,-0.439779517138612,97.639009171488
3.272,-0.0347810904470907,-0.457465690245449,97.7103039582959
3.274,0.0419519265837288,-0.489058088671339,97.3159014904705
3.276,-0.0327526200281878,-0.443509516175485,97.4915435352155
3.278,0.0153117328883655,-0.45503718963195,97.612962284784
3.28,-0.0688718253494547,-0.431951890367644,97.6703767192017
3.282,0.00219480829587518,-0.483921867689554,97.5528762454649
3.284,0.0507826298183702,-0.4064640534258,97.2114544596688
3.286,0.0461196257819974,-0.427975869723671,97.3301004656416
3.288,-0.0753357979448454,-0.480042435082527,98.0334723844317
3.29,-0.0685378933859778,-0.47649743263942,97.3848294605868
3.292,0.0232789258649102,-0.451276991388357,97.5062839601701
3.294,0.01295274560085,-0.402828215136533,97.7198346519812
3.296,-0.0282195245491541,-0.525232995652445,97.3929171288657
3.298,0.0156266233642906,-0.474224770560178,97.7508326602768
3.3,-0.0228265733319198,-0.356267158734766,97.6274349019343
3.302,0.0757557187339337,-0.341954515010806,97.675268106103
3.304,-0.0089836895949037,-0.337772663887571,97.8834731994612
3.306,0.00597406546080777,-0.485780363390764,97.439270443935
3.308,0.054638585750922,-0.445632813258523,97.8046163398962
3.31,-0.0619136363592658,-0.44164861945375,97.8055895147812
3.312,0.0170399124313003,-0.399965168100452,97.4822982720273
3.314,-0.028190572279833,-0.405908707122752,97.4479688553531
3.316,-0.00419599640662905,-0.419735888385579,97.6696235364354
3.318,0.0304153651387694,-0.539029562314426,97.6449880353407
3.32,0.0117802797828046,-0.452036059468018,97.0369471982642
3.322,-0.0171868046857697,-0.410191022097339,97.576313869529
3.324,-0.0328422891461105,-0.449934726251654,97.3939485434698
3.326,-0.0198886593730352,-0.469415805273089,97.738774332428
3.328,-0.0255354533177054,-0.460039117277922,97.5592797951443
3.33,-0.0516055920641786,-0.469260208240898,97.7232307612828
3.332,0.0122250184001178,-0.470438968366092,97.7121239462863
3.334,-0.0179646732688211,-0.442767319339346,97.4402848122916
3.336,-0.018071280250668,-0.441405611914508,97.1554948774886
3.338,-0.0217931940008104,-0.366690818675533,97.8089142268704
3.34,-0.0167000342928214,-0.294690807384644,97.6903461156534
3.342,-0.0132231457466276,-0.388180909309401,97.5103736504504
3.344,-0.0164991482193244,-0.442356021786444,97.5288544324861
3.346,0.0206262566881122,-0.516630973474524,97.5459682116645
3.348,0.0698850244192355,-0.429132744740928,97.5942798962407
3.35,-0.0422230340533902,-0.466108107219904,97.659564832223
3.352,-0.0300098348669792,-0.517710093774885,97.7970021003215
3.354,-0.0399092921562893,-0.452812573292479,97.6779663202766
3.356,-0.0609566759938181,-0.396308416786975,97.855005459978
3.358,0.0968006275466509,-0.486316354360442,97.4619501223599
3.36,0.0301250372992274,-0.445794130580187,97.332493894081
3.362,-0.027318055137226,-0.457162080373512,97.7958861056931
3.364,0.0701386073639078,-0.43627094971191,97.5699961316953
3.366,-0.0117088245251973,-0.336679095788255,97.3889192539684
3.368,0.0458101375954679,-0.418431434271086,97.3655265680245
3.37,0.0212843102047759,-0.381136659802099,97.6580850958341
3.372,0.0454984024303716,-0.414555805986339,97.6092724869753
3.374,0.102693877647089,-0.486693062857346,97.6087334121972
3.376,0.125620646591962,-0.471192320927606,97.405076695147
3.378,0.0566274864224015,-0.411159740518999,97.5678957570313
3.38,0.0797109397371955,-0.361967293455657,97.9126080745561
3.382,0.0344128993222778,-0.471988872157643,97.8483033495215
3.384,0.131606894559697,-0.425194044929072,97.5305366660752
3.386,0.0918252962853227,-0.439917563511973,97.3255205277186
3.388,0.197323713580063,-0.378705166033033,97.6524540360654
3.39,0.187576787466409,-0.364833421027555,97.4991900500875
3.392,0.181237835034603,-0.410412520862211,97.6297386798787
3.394,0.0519876296074776,-0.35266995412385,97.8667694537925
3.396,0.117788766198345,-0.550735970837556,97.3564870921114
3.398,0.099765539772527,-0.428879059580822,97.2438939472454
3.4,0.112620568635239,-0.334971933034438,97.4069142707086
3.402,0.190314471599226,-0.370215127118408,97.4111222897392
3.404,0.157760537265589,-0.404322514108181,97.5745304408544
3.406,0.10239355530555,-0.391433905295673,97.2086643832227
3.408,0.165731418201109,-0.375063644600416,97.7450139301038
3.41,-0.0216247837708544,-0.345129422493568,97.3788590191853
3.412,0.0501722280112223,-0.476623187442805,97.7441734436017
3.414,0.0309317576720523,-0.436302762077217,97.8429963317097
3.416,0.0672829696673095,-0.388882827768862,97.8747363962501
3.418,0.0309537843780588,-0.336543233851219,97.8780864739791
3.42,0.0184242397365802,-0.433959664071459,97.8231614355815
3.422,-0.00443873481445596,-0.324349371319804,97.711072574364
3.424,0.0520986427568134,-0.404626675692361,97.4945944983833
3.426,0.144698969118191,-0.4131046901843,97.9925187398405
3.428,0.0742648903146334,-0.349153300756972,97.82474843875
3.43,0.0601095082870047,-0.425211933485989,97.4772901654737
3.432,-0.0757081160725935,-0.372620503269207,97.2912652805318
3.434,0.0263704222639703,-0.399779274519866,97.2614587854646
3.436,0.000309548535650222,-0.367638693037206,97.5730524859308
3.438,0.0352296318991627,-0.287171357631811,97.4219956504342
3.44,-0.0674209749390582,-0.375147787909192,97.3616324769479
3.442,0.074037053222115,-0.359442400571282,97.4903764004754
3.444,-0.0630484547544986,-0.33042888929821,97.4681035787775
3.446,-0.057484324635005,-0.32579855925577,97.4896681194565
3.448,0.145069684199875,-0.437434167365481,97.4992154656381
3.45,-0.0164997094227013,-0.447066528057842,97.4756199245282
3.452,0.0421534891475982,-0.266391693189435,97.1654557166474
3.454,0.0304731840277528,-0.361514034185964,97.7001402170384
3.456,0.0345967577580958,-0.387165180083044,97.5534794019479
3.458,-0.0275080663709466,-0.364996089463201,97.356373122467
3.46,0.0191897338483489,-0.357029826526601,97.653777807896
3.462,0.0677492010957225,-0.250790664559102,97.4736401983609
3.464,0.0159631342315054,-0.476142475433809,97.8380198378259
3.466,0.0579772610984183,-0.473393615219681,97.4563195387475
3.468,0.0866279072841042,-0.311867343690477,97.9239080922214
3.47,-0.00249337779885816,-0.35108090673871,97.7145829574981
3.472,-0.00731893285539337,-0.338997101089681,97.9978172217575
3.474,-0.00331036063512966,-0.429531538162275,97.6184216972789
3.476,-0.0134203195179838,-0.375050217902875,97.6299867746712
3.478,-0.0540621353914612,-0.356715717244015,97.9802969182982
3.48,0.0298216332518781,-0.33406718943508,97.5826110981782
3.482,0.163241025795723,-0.386400643750609,97.6805313707732
3.484,0.159566202717504,-0.370779717173358,97.4464192491239
3.486,0.339893483574542,-0.268114177507103,97.6236267325881
3.488,0.521816039278592,-0.428487720609166,97.6682614604369
3.49,0.851964490074632,-0.309704884432288,97.8794496255876
3.492,0.932924240197045,-0.375697752334898,97.8260728146499
3.494,1.05176570484636,-0.294756059377593,97.682995355956
3.496,0.886154462210044,-0.367808789492814,97.199705653036
3.498,0.689443902065864,-0.317179490365176,97.8667083616132
3.5,0.526999758678497,-0.295198797746684,97.8769968375133
3.502,0.346097895009649,-0.371218951463921,97.7671880816078
3.504,0.208876965854143,-0.376646777080793,97.771488972897
3.506,0.130405297749955,-0.247898674334229,97.3273720259842
3.508,-0.00562944554970093,-0.300015365429945,97.4119279069537
3.51,-0.0321930371262876,-0.311507223385539,97.5430354655476
3.512,-0.149860576158401,-0.368928502900843,97.6855815654078
3.514,-0.112694922776173,-0.335628165586427,97.8386964470644
3.516,-0.110383585150778,-0.364605494946038,97.2055858109442
3.518,-0.129501022238654,-0.285015475943873,97.8089065907064
3.52,0.00585144490918835,-0.387325588420151,97.7678048744724
3.522,0.028210570870614,-0.40656576535576,97.6468078510372
3.524,-0.0176811846495808,-0.274995061290391,97.8596838678959
3.526,-0.0390931873095726,-0.401134146735739,97.5411187627213
3.528,0.108139092626705,-0.434312973990194,97.7083442806062
3.53,0.023165495171778,-0.372635107934887,97.6231606276026
3.532,-0.0485527035561637,-0.381163506098802,97.4841746952438
3.534,-0.042558968081748,-0.317228371773171,97.7178093311464
3.536,0.0439701660075997,-0.252554929283091,97.818122175357
3.538,-0.0488112360408501,-0.223063367193555,97.6520609286737
3.54,-0.0469625630126236,-0.306490896125778,97.5985239806133
3.542,0.0176020738042559,-0.259650749211421,97.5228914064896
3.544,0.00380222604562739,-0.344797780722762,97.5734505467204
3.546,-0.0935173108909684,-0.348403944361675,97.850547554553
3.548,0.00293134570037005,-0.328963421886228,97.5581006147486
3.55,0.133801183733725,-0.345317952412619,97.5299455064369
3.552,0.0140318385201472,-0.34259108601283,97.5485827747018
3.554,0.0401568369381971,-0.330123619599951,97.5839288713513
3.556,0.0409146323364544,-0.298022055764054,97.4918622932008
3.558,-0.00559754270553579,-0.348018249782733,97.4504441909787
3.56,0.0559232753504947,-0.300950741146717,97.2969634288168
3.562,0.00998625390873749,-0.32122143743878,97.6107054563708
3.564,0.0670266439842135,-0.242196855133776,97.7994726180137
3.566,0.0184488101982673,-0.252375890956415,97.8767679021959
3.568,0.0708678708657302,-0.265884049952601,97.6923257551958
3.57,0.0216132250106853,-0.274064966624078,97.833000664139
3.572,-0.0665532979374527,-0.321898704901403,97.7729631756724
3.574,-0.0110870803206495,-0.333131114557666,97.5071731801241
3.576,0.0643905702624726,-0.334645838164668,97.6796715499533
3.578,-0.00862871733358154,-0.279124131365447,97.7893645086793
3.58,-0.0173611700307615,-0.306190678471804,97.865425601825
3.582,0.0916880700551807,-0.383827540827148,97.35171869224
3.584,0.00454378988501896,-0.258726140203749,97.8358353728552
3.586,0.097634941128979,-0.264629977689544,97.438437618002
3.588,-0.0389367258389944,-0.278185014341331,97.7261022296241
3.59,-0.0362177109627631,-0.233455179215858,97.7159227501964
3.592,-0.0165373372136276,-0.313000994736038,97.8508206078441
3.594,-0.0426242953086419,-0.339863488022067,97.4539318382025
3.596,0.051249578111213,-0.289743309649853,97.6951692307049
3.598,0.0236853074789216,-0.260009672987377,97.6718605776013
3.6,0.0230137663022331,-0.285816885730073,97.7782290736481
3.602,-0.0137153925987384,-0.24106839324319,97.538707456178
3.604,0.0792401548555647,-0.268869508637601,97.5818050443968
3.606,0.0560160657438869,-0.317441067930946,97.8413702380329
3.608,0.118650825393885,-0.298218649395629,97.8453447352866
3.61,-0.016184351800312,-0.335033052919769,97.5127681007066
3.612,-0.0430963263080377,-0.323944040064388,98.1368514219545
3.614,0.119696062462602,-0.350153526143053,97.7832607156441
3.616,0.0278808483790458,-0.203203569922564,97.4121435671372
3.618,-0.0255012395228233,-0.285482293973104,97.8303406208986
3.62,0.0389778060197716,-0.281630450025733,97.3101466323564
3.622,0.048048219951955,-0.319110599344991,97.7650973730699
3.624,0.0657311219751487,-0.230977220177418,98.0149075444872
3.626,0.0100115641233647,-0.251556081219363,97.5752972533271
3.628,0.0302290101878361,-0.287193804232159,97.624952919905
3.63,0.120394319311292,-0.3497248148808,97.4274213535408
3.632,0.0276133453134073,-0.292092341441377,97.5129728786589
3.634,0.063891543077621,-0.280114521434784,97.7972902170369
3.636,0.0600271676237491,-0.271571537901127,97.4493307479187
3.638,0.114765931735198,-0.258181128018421,97.3168673393538
3.64,0.0372544429483979,-0.216252012340413,97.783403086485
3.642,0.0762913481505771,-0.232172869749807,97.7535512469544
3.644,0.055607743202672,-0.275890169080388,97.6396990698867
3.646,0.0750409892347446,-0.334754470437178,97.6047715558888
3.648,0.105580327561652,-0.156580323324121,97.5546486380417
3.65,-0.0121691623144197,-0.279127664381314,97.4246699590492
3.652,0.0944875962844548,-0.274487421931316,97.7315298506353
3.654,0.149599502983172,-0.332830483526441,97.7058305937092
3.656,0.179871311962058,-0.165993722402285,97.7323956182657
3.658,0.229547891554926,-0.269439448915845,97.608697584985
3.66,0.245061114875402,-0.242822544652881,97.7165717883592
3.662,0.293226092672222,-0.290986986353444,97.7505500483646
3.664,0.21931790235939,-0.212037653864532,97.614643876065
3.666,0.240519166698333,-0.162937743217294,97.7005323887189
3.668,0.191115083706246,-0.0975183102425148,97.5660654393609
3.67,0.330697894061682,-0.260943637959316,97.7648184185009
3.672,0.32258535765868,-0.248403351375159,97.7964583493252
3.674,0.24054397715263,-0.272797147172241,97.776784708456
3.676,0.215490926860329,-0.148883850309557,97.5132133408358
3.678,0.270417315627399,-0.29745638142892,97.517253465881
3.68,0.278394960234704,-0.235515385992151,97.7207538460036
3.682,0.366961647073472,-0.203478188054985,97.6215266408775
3.684,0.406948287918538,-0.24815920288634,97.7628234802578
3.686,0.227176971188925,-0.222442399769903,97.4375515131149
3.688,0.273089163329502,-0.172937337998061,97.7231718147891
3.69,0.243288755990323,-0.193385832840959,97.7271866816359
3.692,0.202100117844268,-0.169047384659479,97.7345612873518
3.694,0.277305145572785,-0.120565883278333,97.3449648313383
3.696,0.238148273956674,-0.299887132901878,97.7421859392479
3.698,0.302902358361338,-0.260444464455966,97.7264219076186
3.7,0.223186890546337,-0.228766571216839,97.3876779312741
3.702,0.302665442686981,-0.141581783184876,97.524257732743
3.704,0.202508011747625,-0.254575723357599,97.4962190258576
3.706,0.24350390746436,-0.241466696406846,97.5019474114733
3.708,0.207081727657689,-0.250228000307044,97.7538773225166
3.71,0.178153190142895,-0.176503008403999,97.6883906854715
3.712,0.232385512090331,-0.244310540312607,97.830194326662
3.714,0.17156451442098,-0.297621465905246,97.9689243967789
3.716,0.245025969002681,-0.198327257876513,97.4512713968082
3.718,0.149891473385156,-0.217318363499632,97.7986986793985
3.72,0.124607612376727,-0.251366971758573,97.8389273109256
3.722,0.118938454237392,-0.22011304814306,97.6640026043234
3.724,0.0409972112252339,-0.188677360985607,97.712622633987
3.726,0.139475170258864,-0.23175331738782,97.4196738687158
3.728,0.010205253194298,-0.260486055147328,97.6393185421372
3.73,0.00997363525119603,-0.261933287970706,97.5351881756437
3.732,0.0572676009734253,-0.235883054794333,98.1233500457064
3.734,0.0471931966448897,-0.196452876954668,97.6142302177658
3.736,0.0765599525142296,-0.20516981729455,97.2726855884065
3.738,0.015357131461991,-0.273365074681057,97.7616030908091
3.74,0.0720111255733698,-0.2035445594232,97.3617876996164
3.742,0.0160146857745341,-0.293195612401879,97.4086506992562
3.744,0.0391828107013889,-0.21011180856555,97.6460199379417
3.746,0.00573341377444809,-0.303119008433348,97.7766281587385
3.748,-0.0141786946339433,-0.159652444848866,97.6906415609718
3.75,-0.0601078829849308,-0.163697975916225,97.7657895084401
3.752,-0.0207018167133158,-0.138710908406821,97.4322013041392
3.754,-0.0585641848394444,-0.157088459236539,97.5863164518246
3.756,0.0264847317265878,-0.194119962056257,97.7542598470849
3.758,-0.09810238868301,-0.162145069968291,97.9651238432813
3.76,-0.0686883627099256,-0.127466626774158,97.5199904679421
3.762,-0.0604303057894212,-0.12095762459675,97.7468708437455
3.764,0.0225767468272776,-0.172453394481785,98.3007561892895
3.766,-0.00963100907267566,-0.221164963861863,97.7275574637962
3.768,-0.0114150394149136,-0.253428825191525,97.7229297757302
3.77,-0.0307910615424572,-0.116534271086445,97.8235114153983
3.772,-0.0383170581770631,-0.172467051659245,97.7387443116912
3.774,-0.0699753929300123,-0.220218664697992,97.4472081780702
3.776,0.0916097030652805,-0.145727984887699,97.5948876137842
3.778,-0.0653264078056463,-0.181223029648986,97.5317520759844
3.78,-0.0345941568681956,-0.178185395347619,97.6171051356769
3.782,0.0578914133673703,-0.183583527916846,97.8133823268953
3.784,-0.0825297501673508,-0.248348285899534,97.8003758157894
3.786,-0.0108302339974278,-0.201401723601121,97.4596478791326
3.788,-0.0438097374986317,-0.185244373650986,97.6839805135149
3.79,-0.0125782982018451,-0.217832860576988,97.8521135667298
3.792,-0.00868198731265997,-0.0983099915029622,97.9326192969493
3.794,-0.0246040622953786,-0.172857057390408,97.7100818217945
3.796,-0.0351097044920132,-0.165715190380082,97.6708598764585
3.798,-0.00773806606850407,-0.194520158475172,97.8303473404371
3.8,0.0267017729999874,-0.120221686717549,97.6605815016411
3.802,-0.00109776016141001,-0.132242897971978,97.6848480598258
3.804,0.0243082682214664,-0.153739412066665,97.4909131393316
3.806,-0.023501882066814,-0.187615713956389,97.7861301614816
3.808,-0.0198309456799454,-0.18067139496479,97.6214798614603
3.81,-0.0251635163717103,-0.0508097603034375,97.8834611880208
3.812,-0.091327194507081,-0.126758135199749,97.5643969880724
3.814,-0.0546243364204317,-0.15628852718157,97.3035020309569
3.816,0.0394270958217403,-0.147026432710081,97.4889712504706
3.818,-0.122913807612358,-0.100798903922162,97.7208239944864
3.82,0.0923262894750141,-0.111598485013617,97.6567026505418
3.822,-0.011895019269126,-0.166162381614645,97.640269134581
3.824,-0.0804258241405832,-0.130214575280622,97.7330859781597
3.826,-0.0201588098621242,-0.154414742757159,97.8315808581194
3.828,-0.04323908088287,-0.0707934820376815,97.5548251490378
3.83,-0.0315286655047784,-0.143756388473864,97.494912026738
3.832,0.0107131748081963,-0.0854938732620263,97.4682554560582
3.834,-0.0479216393125408,-0.0481324874757125,97.5749103084318
3.836,0.00210987818782361,-0.0967041995124194,97.6850915713305
3.838,-0.00285778442254264,-0.107647345947208,97.9788609749841
3.84,0.0440812254572911,-0.0934892795807695,97.7256249851528
3.842,0.0424806047086142,-0.131991374563599,97.6950527146943
3.844,0.083876906536216,-0.173878940994249,97.3714000525072
3.846,0.0311818582743331,-0.0860492395335313,97.3040254808025
3.848,-0.00256864308507371,-0.0827417100178284,98.0046725108941
3.85,0.0168428353776218,-0.0162043020811159,97.5726047163264
3.852,-0.009695886087056,-0.115204515032265,97.3639793837665
3.854,-0.0677509691089937,-0.151087550182659,97.5472609344359
3.856,0.0371871996108638,-0.12768941372616,97.6730068119254
3.858,-0.0209009290691874,-0.116853158370915,97.4674087032223
3.86,-0.0499364323391089,-0.210359496066678,97.3664007139831
3.862,-0.0721540586454374,-0.179309013253331,97.8362518033641
3.864,0.00973195949397668,-0.0427932000616122,97.4373115068822
3.866,0.0224262820035062,0.0285883962454808,97.4743139359665
3.868,0.0519293063887964,-0.131773620017706,97.740998348185
3.87,0.0358332446066799,-0.122640543687244,97.4659934752764
3.872,0.0159358155720985,-0.0704982104209405,98.0929629956005
3.874,0.0567159766053444,-0.00661968045287813,97.7191266222816
3.876,-0.00408200863531159,-0.0924682196497102,97.5848602514324
3.878,0.0363804839941655,-0.0503817184649681,97.8033756204902
3.88,0.0430862674256365,-0.0357826555651692,97.6759452203863
3.882,-0.000206879720005352,-0.165562168853846,97.4281044909663
3.884,-0.0538167740950285,-0.126861353203301,97.4853332805274
3.886,0.0113905762182121,-0.0785334466709504,97.6316596208187
3.888,0.0391935714215491,-0.0557706147256679,97.2528469103359
3.89,0.0212325805034007,-0.150358879579968,97.7289713889517
3.892,0.020122120823731,-0.145273050512383,97.3851797641113
3.894,0.0414329645945362,-0.0526544485110356,97.7475981717315
3.896,-0.0547026839774283,-0.147219106126883,97.8484109432378
3.898,-0.0267233078347966,-0.0371667631533976,97.7048323485643
3.9,0.0718751949185113,-0.0179206869435197,97.6968944460696
3.902,0.02668253153517,-0.0828558398345804,98.1271567852709
3.904,-0.0290698228795008,-0.0590716112340829,97.468654922186
3.906,-0.0163933076048162,-0.00806951564747721,97.6516198634861
3.908,0.0287543107009197,-0.0858218544534005,97.6993206823643
3.91,0.0414179843398966,0.0190424664938918,97.8130677384791
3.912,-0.0234329810248261,-0.101432475428118,97.6728631084292
3.914,0.0568305650690233,-0.158683228567198,97.9193270956258
3.916,-0.00157641660238447,-0.0850633985376996,97.5079398498603
3.918,0.00475635249697371,-0.0503323842166562,97.7645485146761
3.92,-0.0102190973123011,-0.119743900879809,97.541306944016
3.922,0.0580570617007557,-0.114026268520348,97.7162579882271
3.924,-0.00926707990276353,-0.132654164878819,97.3687221694345
3.926,0.019354131480533,0.00669447377016333,97.9642231952189
3.928,0.0207715902346952,-0.0443652269723533,97.6096757471668
3.93,0.0100089676413761,-0.0851686855040177,97.5006815092095
3.932,-0.0573648589093997,0.00481328302227121,97.762223396318
3.934,-0.0035769451598696,-0.0206611606193283,97.6378298647312
3.936,-0.0899574159223911,-0.129829475393713,97.5246547378717
3.938,0.0397222083013468,-0.0468503086142328,97.8884530436117
3.94,0.00784558542872565,-0.0731490083163468,97.7262280259983
3.942,-0.0281657273707023,-0.0819047603186277,97.8346433472711
3.944,0.0105922826446504,-0.0186742193140108,97.6361039643421
3.946,0.13967784789078,0.0352876696308402,97.8313002379231
3.948,0.01103776896977,-0.00913087464631416,97.623108469658
3.95,-0.0499427823636952,-0.0802143584469323,97.9381881338236
3.952,-0.00479874324085322,-0.0303477948780258,97.6386508003417
3.954,-0.0561771727670191,0.0294564814585403,97.6758964013541
3.956,-0.0652159139333021,-0.0755129096841112,97.8515504508432
3.958,-0.0660429308963332,0.00833353399951319,97.9604600750981
3.96,-0.0499583618840035,0.0536699373844474,97.8579448670818
3.962,0.0100388210965346,-0.0963426792875446,97.6890999336959
3.964,-0.0190982654649982,-0.111303025271008,97.7566495486953
3.966,-0.0239491284868376,-0.0692674132012107,97.6452638340366
3.968,-0.0432225713504379,0.03131827305689,97.5443012632648
3.97,-0.129584232880052,0.00741627452705453,97.5377904621081
3.972,0.0381498050088798,0.0344042538165156,97.524203481302
